'Elapsed time','V5','V2'
'hh:mm:ss.mmm','mV','mV'
'23:00.000',-0.210,0.160
'23:00.003',-0.205,0.145
'23:00.006',-0.195,0.145
'23:00.008',-0.190,0.125
'23:00.011',-0.195,0.115
'23:00.014',-0.205,0.090
'23:00.017',-0.215,0.070
'23:00.019',-0.210,0.075
'23:00.022',-0.200,0.080
'23:00.025',-0.190,0.050
'23:00.028',-0.195,0.055
'23:00.031',-0.210,0.030
'23:00.033',-0.225,0.035
'23:00.036',-0.225,0.030
'23:00.039',-0.225,0.040
'23:00.042',-0.215,0.035
'23:00.044',-0.215,0.025
'23:00.047',-0.220,0.015
'23:00.050',-0.220,0.010
'23:00.053',-0.225,0.015
'23:00.056',-0.205,0.035
'23:00.058',-0.205,0.030
'23:00.061',-0.215,0.015
'23:00.064',-0.225,0.015
'23:00.067',-0.230,0.005
'23:00.069',-0.240,0.025
'23:00.072',-0.230,0.025
'23:00.075',-0.210,0.025
'23:00.078',-0.210,0.020
'23:00.081',-0.215,0.000
'23:00.083',-0.220,0.010
'23:00.086',-0.215,0.025
'23:00.089',-0.215,0.030
'23:00.092',-0.215,0.035
'23:00.094',-0.220,0.025
'23:00.097',-0.225,0.015
'23:00.100',-0.240,0.005
'23:00.103',-0.245,0.020
'23:00.106',-0.230,0.025
'23:00.108',-0.220,0.025
'23:00.111',-0.225,0.010
'23:00.114',-0.225,0.010
'23:00.117',-0.245,0.005
'23:00.119',-0.240,0.020
'23:00.122',-0.235,0.025
'23:00.125',-0.245,0.015
'23:00.128',-0.240,0.015
'23:00.131',-0.255,0.000
'23:00.133',-0.270,0.000
'23:00.136',-0.265,0.005
'23:00.139',-0.245,0.010
'23:00.142',-0.235,0.005
'23:00.144',-0.235,-0.005
'23:00.147',-0.245,-0.010
'23:00.150',-0.265,-0.025
'23:00.153',-0.265,-0.020
'23:00.156',-0.260,-0.010
'23:00.158',-0.270,-0.010
'23:00.161',-0.260,-0.030
'23:00.164',-0.260,-0.040
'23:00.167',-0.265,-0.055
'23:00.169',-0.255,-0.035
'23:00.172',-0.245,-0.025
'23:00.175',-0.240,-0.040
'23:00.178',-0.255,-0.050
'23:00.181',-0.265,-0.055
'23:00.183',-0.290,-0.065
'23:00.186',-0.285,-0.065
'23:00.189',-0.295,-0.060
'23:00.192',-0.270,-0.055
'23:00.194',-0.275,-0.070
'23:00.197',-0.285,-0.080
'23:00.200',-0.285,-0.085
'23:00.203',-0.275,-0.080
'23:00.206',-0.260,-0.080
'23:00.208',-0.260,-0.075
'23:00.211',-0.280,-0.090
'23:00.214',-0.300,-0.105
'23:00.217',-0.310,-0.105
'23:00.219',-0.300,-0.100
'23:00.222',-0.275,-0.090
'23:00.225',-0.250,-0.085
'23:00.228',-0.265,-0.090
'23:00.231',-0.265,-0.110
'23:00.233',-0.275,-0.115
'23:00.236',-0.270,-0.110
'23:00.239',-0.270,-0.090
'23:00.242',-0.265,-0.100
'23:00.244',-0.285,-0.100
'23:00.247',-0.300,-0.135
'23:00.250',-0.305,-0.135
'23:00.253',-0.320,-0.120
'23:00.256',-0.320,-0.110
'23:00.258',-0.315,-0.110
'23:00.261',-0.320,-0.120
'23:00.264',-0.300,-0.130
'23:00.267',-0.300,-0.130
'23:00.269',-0.285,-0.130
'23:00.272',-0.275,-0.110
'23:00.275',-0.270,-0.125
'23:00.278',-0.285,-0.135
'23:00.281',-0.290,-0.130
'23:00.283',-0.300,-0.135
'23:00.286',-0.300,-0.130
'23:00.289',-0.295,-0.125
'23:00.292',-0.290,-0.130
'23:00.294',-0.295,-0.120
'23:00.297',-0.290,-0.145
'23:00.300',-0.290,-0.150
'23:00.303',-0.275,-0.135
'23:00.306',-0.270,-0.125
'23:00.308',-0.270,-0.130
'23:00.311',-0.275,-0.135
'23:00.314',-0.285,-0.150
'23:00.317',-0.300,-0.150
'23:00.319',-0.310,-0.145
'23:00.322',-0.290,-0.140
'23:00.325',-0.290,-0.140
'23:00.328',-0.290,-0.150
'23:00.331',-0.300,-0.165
'23:00.333',-0.310,-0.170
'23:00.336',-0.315,-0.165
'23:00.339',-0.290,-0.140
'23:00.342',-0.285,-0.155
'23:00.344',-0.295,-0.145
'23:00.347',-0.300,-0.145
'23:00.350',-0.310,-0.155
'23:00.353',-0.315,-0.150
'23:00.356',-0.300,-0.150
'23:00.358',-0.280,-0.140
'23:00.361',-0.270,-0.145
'23:00.364',-0.270,-0.165
'23:00.367',-0.270,-0.145
'23:00.369',-0.275,-0.150
'23:00.372',-0.270,-0.135
'23:00.375',-0.265,-0.145
'23:00.378',-0.265,-0.155
'23:00.381',-0.270,-0.140
'23:00.383',-0.280,-0.145
'23:00.386',-0.270,-0.110
'23:00.389',-0.270,-0.055
'23:00.392',-0.260,0.090
'23:00.394',-0.230,0.380
'23:00.397',-0.215,0.710
'23:00.400',-0.160,0.830
'23:00.403',-0.065,0.640
'23:00.406',0.155,0.405
'23:00.408',0.495,0.295
'23:00.411',0.795,0.245
'23:00.414',0.775,0.190
'23:00.417',0.510,0.130
'23:00.419',0.280,0.050
'23:00.422',0.170,-0.045
'23:00.425',0.165,-0.185
'23:00.428',0.170,-0.340
'23:00.431',0.175,-0.510
'23:00.433',0.160,-0.715
'23:00.436',0.140,-0.920
'23:00.439',0.145,-1.115
'23:00.442',0.155,-1.290
'23:00.444',0.175,-1.445
'23:00.447',0.160,-1.600
'23:00.450',0.120,-1.755
'23:00.453',0.080,-1.925
'23:00.456',0.085,-2.145
'23:00.458',0.095,-2.340
'23:00.461',0.100,-2.505
'23:00.464',0.075,-2.600
'23:00.467',0.040,-2.700
'23:00.469',-0.005,-2.785
'23:00.472',-0.055,-2.865
'23:00.475',-0.095,-2.925
'23:00.478',-0.140,-2.965
'23:00.481',-0.210,-3.010
'23:00.483',-0.285,-3.020
'23:00.486',-0.340,-3.045
'23:00.489',-0.420,-3.045
'23:00.492',-0.495,-3.055
'23:00.494',-0.575,-3.060
'23:00.497',-0.645,-3.065
'23:00.500',-0.665,-3.070
'23:00.503',-0.645,-3.045
'23:00.506',-0.605,-3.025
'23:00.508',-0.555,-3.000
'23:00.511',-0.555,-2.965
'23:00.514',-0.535,-2.890
'23:00.517',-0.545,-2.785
'23:00.519',-0.520,-2.635
'23:00.522',-0.495,-2.450
'23:00.525',-0.485,-2.275
'23:00.528',-0.445,-2.060
'23:00.531',-0.420,-1.845
'23:00.533',-0.400,-1.610
'23:00.536',-0.350,-1.360
'23:00.539',-0.320,-1.110
'23:00.542',-0.330,-0.875
'23:00.544',-0.350,-0.680
'23:00.547',-0.355,-0.515
'23:00.550',-0.365,-0.335
'23:00.553',-0.365,-0.155
'23:00.556',-0.345,0.020
'23:00.558',-0.340,0.170
'23:00.561',-0.345,0.315
'23:00.564',-0.350,0.410
'23:00.567',-0.355,0.490
'23:00.569',-0.335,0.555
'23:00.572',-0.325,0.600
'23:00.575',-0.300,0.640
'23:00.578',-0.295,0.675
'23:00.581',-0.305,0.700
'23:00.583',-0.320,0.720
'23:00.586',-0.330,0.760
'23:00.589',-0.315,0.790
'23:00.592',-0.310,0.815
'23:00.594',-0.320,0.840
'23:00.597',-0.320,0.840
'23:00.600',-0.330,0.855
'23:00.603',-0.325,0.895
'23:00.606',-0.325,0.920
'23:00.608',-0.325,0.940
'23:00.611',-0.325,0.950
'23:00.614',-0.365,0.970
'23:00.617',-0.360,0.985
'23:00.619',-0.355,1.015
'23:00.622',-0.345,1.040
'23:00.625',-0.325,1.070
'23:00.628',-0.335,1.075
'23:00.631',-0.340,1.090
'23:00.633',-0.335,1.105
'23:00.636',-0.335,1.140
'23:00.639',-0.340,1.175
'23:00.642',-0.360,1.200
'23:00.644',-0.350,1.225
'23:00.647',-0.345,1.235
'23:00.650',-0.345,1.255
'23:00.653',-0.330,1.300
'23:00.656',-0.320,1.330
'23:00.658',-0.315,1.360
'23:00.661',-0.315,1.380
'23:00.664',-0.320,1.390
'23:00.667',-0.320,1.410
'23:00.669',-0.300,1.455
'23:00.672',-0.290,1.485
'23:00.675',-0.270,1.510
'23:00.678',-0.285,1.525
'23:00.681',-0.285,1.540
'23:00.683',-0.285,1.545
'23:00.686',-0.265,1.590
'23:00.689',-0.245,1.605
'23:00.692',-0.230,1.600
'23:00.694',-0.220,1.600
'23:00.697',-0.215,1.590
'23:00.700',-0.220,1.590
'23:00.703',-0.210,1.580
'23:00.706',-0.180,1.575
'23:00.708',-0.160,1.545
'23:00.711',-0.150,1.505
'23:00.714',-0.160,1.460
'23:00.717',-0.135,1.435
'23:00.719',-0.135,1.385
'23:00.722',-0.115,1.355
'23:00.725',-0.105,1.290
'23:00.728',-0.100,1.235
'23:00.731',-0.105,1.165
'23:00.733',-0.115,1.110
'23:00.736',-0.100,1.040
'23:00.739',-0.090,1.000
'23:00.742',-0.090,0.920
'23:00.744',-0.075,0.855
'23:00.747',-0.110,0.790
'23:00.750',-0.110,0.735
'23:00.753',-0.110,0.670
'23:00.756',-0.110,0.625
'23:00.758',-0.080,0.575
'23:00.761',-0.090,0.530
'23:00.764',-0.105,0.465
'23:00.767',-0.130,0.415
'23:00.769',-0.130,0.380
'23:00.772',-0.130,0.360
'23:00.775',-0.130,0.320
'23:00.778',-0.140,0.285
'23:00.781',-0.165,0.245
'23:00.783',-0.180,0.215
'23:00.786',-0.175,0.190
'23:00.789',-0.180,0.200
'23:00.792',-0.185,0.170
'23:00.794',-0.190,0.145
'23:00.797',-0.200,0.130
'23:00.800',-0.215,0.110
'23:00.803',-0.210,0.110
'23:00.806',-0.215,0.115
'23:00.808',-0.205,0.105
'23:00.811',-0.210,0.090
'23:00.814',-0.215,0.080
'23:00.817',-0.240,0.060
'23:00.819',-0.235,0.075
'23:00.822',-0.225,0.080
'23:00.825',-0.215,0.075
'23:00.828',-0.225,0.070
'23:00.831',-0.240,0.065
'23:00.833',-0.240,0.060
'23:00.836',-0.245,0.055
'23:00.839',-0.225,0.065
'23:00.842',-0.230,0.070
'23:00.844',-0.230,0.060
'23:00.847',-0.245,0.055
'23:00.850',-0.250,0.055
'23:00.853',-0.250,0.070
'23:00.856',-0.235,0.080
'23:00.858',-0.235,0.070
'23:00.861',-0.235,0.060
'23:00.864',-0.245,0.065
'23:00.867',-0.260,0.055
'23:00.869',-0.245,0.070
'23:00.872',-0.250,0.070
'23:00.875',-0.245,0.070
'23:00.878',-0.240,0.070
'23:00.881',-0.250,0.060
'23:00.883',-0.260,0.060
'23:00.886',-0.260,0.070
'23:00.889',-0.255,0.070
'23:00.892',-0.245,0.075
'23:00.894',-0.255,0.065
'23:00.897',-0.260,0.040
'23:00.900',-0.265,0.050
'23:00.903',-0.265,0.060
'23:00.906',-0.265,0.065
'23:00.908',-0.260,0.050
'23:00.911',-0.265,0.045
'23:00.914',-0.270,0.040
'23:00.917',-0.280,0.030
'23:00.919',-0.285,0.040
'23:00.922',-0.275,0.040
'23:00.925',-0.270,0.035
'23:00.928',-0.270,0.025
'23:00.931',-0.280,0.015
'23:00.933',-0.285,0.015
'23:00.936',-0.285,0.015
'23:00.939',-0.280,0.025
'23:00.942',-0.280,0.015
'23:00.944',-0.270,0.015
'23:00.947',-0.285,0.000
'23:00.950',-0.300,-0.015
'23:00.953',-0.305,-0.010
'23:00.956',-0.290,0.000
'23:00.958',-0.285,-0.010
'23:00.961',-0.280,-0.020
'23:00.964',-0.305,-0.030
'23:00.967',-0.315,-0.045
'23:00.969',-0.310,-0.045
'23:00.972',-0.295,-0.025
'23:00.975',-0.290,-0.035
'23:00.978',-0.295,-0.040
'23:00.981',-0.310,-0.060
'23:00.983',-0.335,-0.060
'23:00.986',-0.330,-0.055
'23:00.989',-0.315,-0.040
'23:00.992',-0.320,-0.055
'23:00.994',-0.310,-0.065
'23:00.997',-0.320,-0.070
'23:01.000',-0.330,-0.070
'23:01.003',-0.325,-0.070
'23:01.006',-0.320,-0.050
'23:01.008',-0.305,-0.055
'23:01.011',-0.310,-0.065
'23:01.014',-0.320,-0.085
'23:01.017',-0.335,-0.085
'23:01.019',-0.330,-0.080
'23:01.022',-0.320,-0.065
'23:01.025',-0.305,-0.080
'23:01.028',-0.325,-0.080
'23:01.031',-0.330,-0.090
'23:01.033',-0.335,-0.100
'23:01.036',-0.330,-0.090
'23:01.039',-0.320,-0.075
'23:01.042',-0.315,-0.090
'23:01.044',-0.320,-0.095
'23:01.047',-0.335,-0.105
'23:01.050',-0.340,-0.105
'23:01.053',-0.335,-0.090
'23:01.056',-0.325,-0.090
'23:01.058',-0.330,-0.085
'23:01.061',-0.335,-0.105
'23:01.064',-0.340,-0.095
'23:01.067',-0.350,-0.115
'23:01.069',-0.345,-0.100
'23:01.072',-0.335,-0.095
'23:01.075',-0.325,-0.095
'23:01.078',-0.340,-0.100
'23:01.081',-0.350,-0.115
'23:01.083',-0.345,-0.110
'23:01.086',-0.345,-0.100
'23:01.089',-0.345,-0.095
'23:01.092',-0.330,-0.105
'23:01.094',-0.340,-0.100
'23:01.097',-0.335,-0.120
'23:01.100',-0.355,-0.110
'23:01.103',-0.355,-0.110
'23:01.106',-0.345,-0.105
'23:01.108',-0.335,-0.100
'23:01.111',-0.335,-0.110
'23:01.114',-0.340,-0.120
'23:01.117',-0.355,-0.115
'23:01.119',-0.355,-0.110
'23:01.122',-0.345,-0.110
'23:01.125',-0.340,-0.100
'23:01.128',-0.330,-0.115
'23:01.131',-0.340,-0.120
'23:01.133',-0.345,-0.125
'23:01.136',-0.350,-0.120
'23:01.139',-0.340,-0.100
'23:01.142',-0.335,-0.100
'23:01.144',-0.315,-0.120
'23:01.147',-0.335,-0.125
'23:01.150',-0.350,-0.125
'23:01.153',-0.335,-0.110
'23:01.156',-0.325,-0.100
'23:01.158',-0.320,-0.100
'23:01.161',-0.325,-0.105
'23:01.164',-0.325,-0.105
'23:01.167',-0.330,-0.095
'23:01.169',-0.325,-0.080
'23:01.172',-0.310,-0.010
'23:01.175',-0.290,0.110
'23:01.178',-0.275,0.435
'23:01.181',-0.265,0.820
'23:01.183',-0.235,0.950
'23:01.186',-0.185,0.750
'23:01.189',-0.065,0.480
'23:01.192',0.220,0.350
'23:01.194',0.595,0.305
'23:01.197',0.755,0.265
'23:01.200',0.585,0.220
'23:01.203',0.290,0.145
'23:01.206',0.125,0.085
'23:01.208',0.100,-0.035
'23:01.211',0.125,-0.180
'23:01.214',0.135,-0.360
'23:01.217',0.125,-0.545
'23:01.219',0.140,-0.750
'23:01.222',0.145,-0.955
'23:01.225',0.160,-1.155
'23:01.228',0.165,-1.330
'23:01.231',0.160,-1.490
'23:01.233',0.155,-1.655
'23:01.236',0.140,-1.815
'23:01.239',0.140,-1.995
'23:01.242',0.135,-2.210
'23:01.244',0.120,-2.385
'23:01.247',0.120,-2.520
'23:01.250',0.090,-2.625
'23:01.253',0.060,-2.725
'23:01.256',0.025,-2.800
'23:01.258',-0.015,-2.875
'23:01.261',-0.055,-2.930
'23:01.264',-0.140,-2.970
'23:01.267',-0.200,-3.000
'23:01.269',-0.250,-3.015
'23:01.272',-0.305,-3.020
'23:01.275',-0.370,-3.030
'23:01.278',-0.450,-3.040
'23:01.281',-0.550,-3.050
'23:01.283',-0.580,-3.050
'23:01.286',-0.570,-3.035
'23:01.289',-0.535,-3.010
'23:01.292',-0.480,-2.990
'23:01.294',-0.460,-2.950
'23:01.297',-0.465,-2.890
'23:01.300',-0.480,-2.780
'23:01.303',-0.470,-2.645
'23:01.306',-0.465,-2.480
'23:01.308',-0.465,-2.300
'23:01.311',-0.450,-2.100
'23:01.314',-0.455,-1.885
'23:01.317',-0.440,-1.620
'23:01.319',-0.405,-1.345
'23:01.322',-0.360,-1.105
'23:01.325',-0.325,-0.890
'23:01.328',-0.330,-0.675
'23:01.331',-0.345,-0.500
'23:01.333',-0.370,-0.290
'23:01.336',-0.370,-0.110
'23:01.339',-0.370,0.045
'23:01.342',-0.370,0.190
'23:01.344',-0.370,0.340
'23:01.347',-0.385,0.440
'23:01.350',-0.380,0.520
'23:01.353',-0.360,0.595
'23:01.356',-0.340,0.635
'23:01.358',-0.320,0.670
'23:01.361',-0.335,0.700
'23:01.364',-0.345,0.720
'23:01.367',-0.360,0.740
'23:01.369',-0.360,0.770
'23:01.372',-0.350,0.810
'23:01.375',-0.345,0.840
'23:01.378',-0.350,0.875
'23:01.381',-0.340,0.895
'23:01.383',-0.360,0.920
'23:01.386',-0.380,0.950
'23:01.389',-0.370,0.975
'23:01.392',-0.395,0.985
'23:01.394',-0.390,1.005
'23:01.397',-0.420,1.005
'23:01.400',-0.435,1.030
'23:01.403',-0.440,1.055
'23:01.406',-0.425,1.080
'23:01.408',-0.415,1.105
'23:01.411',-0.435,1.120
'23:01.414',-0.445,1.150
'23:01.417',-0.455,1.165
'23:01.419',-0.455,1.190
'23:01.422',-0.440,1.220
'23:01.425',-0.445,1.250
'23:01.428',-0.455,1.265
'23:01.431',-0.470,1.275
'23:01.433',-0.480,1.300
'23:01.436',-0.480,1.335
'23:01.439',-0.465,1.375
'23:01.442',-0.465,1.405
'23:01.444',-0.475,1.425
'23:01.447',-0.485,1.445
'23:01.450',-0.490,1.470
'23:01.453',-0.495,1.505
'23:01.456',-0.480,1.540
'23:01.458',-0.465,1.570
'23:01.461',-0.470,1.590
'23:01.464',-0.475,1.615
'23:01.467',-0.475,1.630
'23:01.469',-0.475,1.660
'23:01.472',-0.445,1.685
'23:01.475',-0.445,1.705
'23:01.478',-0.420,1.715
'23:01.481',-0.430,1.715
'23:01.483',-0.430,1.710
'23:01.486',-0.415,1.735
'23:01.489',-0.395,1.745
'23:01.492',-0.380,1.730
'23:01.494',-0.365,1.725
'23:01.497',-0.375,1.700
'23:01.500',-0.355,1.675
'23:01.503',-0.345,1.670
'23:01.506',-0.340,1.650
'23:01.508',-0.305,1.600
'23:01.511',-0.305,1.570
'23:01.514',-0.295,1.510
'23:01.517',-0.305,1.470
'23:01.519',-0.295,1.420
'23:01.522',-0.255,1.390
'23:01.525',-0.235,1.325
'23:01.528',-0.215,1.260
'23:01.531',-0.215,1.185
'23:01.533',-0.225,1.115
'23:01.536',-0.210,1.070
'23:01.539',-0.190,1.020
'23:01.542',-0.175,0.955
'23:01.544',-0.180,0.890
'23:01.547',-0.190,0.805
'23:01.550',-0.200,0.760
'23:01.553',-0.190,0.710
'23:01.556',-0.185,0.665
'23:01.558',-0.165,0.615
'23:01.561',-0.160,0.570
'23:01.564',-0.175,0.500
'23:01.567',-0.190,0.460
'23:01.569',-0.175,0.430
'23:01.572',-0.175,0.410
'23:01.575',-0.175,0.380
'23:01.578',-0.185,0.350
'23:01.581',-0.200,0.295
'23:01.583',-0.220,0.275
'23:01.586',-0.220,0.260
'23:01.589',-0.220,0.235
'23:01.592',-0.190,0.225
'23:01.594',-0.215,0.195
'23:01.597',-0.220,0.175
'23:01.600',-0.240,0.155
'23:01.603',-0.230,0.145
'23:01.606',-0.230,0.145
'23:01.608',-0.225,0.140
'23:01.611',-0.225,0.120
'23:01.614',-0.235,0.110
'23:01.617',-0.255,0.100
'23:01.619',-0.245,0.100
'23:01.622',-0.230,0.105
'23:01.625',-0.230,0.095
'23:01.628',-0.240,0.085
'23:01.631',-0.260,0.080
'23:01.633',-0.265,0.080
'23:01.636',-0.255,0.090
'23:01.639',-0.245,0.095
'23:01.642',-0.235,0.080
'23:01.644',-0.245,0.090
'23:01.647',-0.245,0.070
'23:01.650',-0.260,0.080
'23:01.653',-0.255,0.085
'23:01.656',-0.250,0.105
'23:01.658',-0.250,0.090
'23:01.661',-0.250,0.085
'23:01.664',-0.250,0.075
'23:01.667',-0.260,0.075
'23:01.669',-0.255,0.090
'23:01.672',-0.250,0.105
'23:01.675',-0.245,0.095
'23:01.678',-0.250,0.100
'23:01.681',-0.255,0.080
'23:01.683',-0.280,0.080
'23:01.686',-0.260,0.095
'23:01.689',-0.255,0.095
'23:01.692',-0.250,0.085
'23:01.694',-0.250,0.095
'23:01.697',-0.265,0.080
'23:01.700',-0.275,0.080
'23:01.703',-0.270,0.070
'23:01.706',-0.265,0.085
'23:01.708',-0.250,0.075
'23:01.711',-0.265,0.080
'23:01.714',-0.270,0.070
'23:01.717',-0.280,0.060
'23:01.719',-0.285,0.075
'23:01.722',-0.280,0.075
'23:01.725',-0.265,0.065
'23:01.728',-0.260,0.060
'23:01.731',-0.270,0.040
'23:01.733',-0.285,0.045
'23:01.736',-0.275,0.045
'23:01.739',-0.275,0.060
'23:01.742',-0.265,0.045
'23:01.744',-0.280,0.045
'23:01.747',-0.290,0.020
'23:01.750',-0.285,0.020
'23:01.753',-0.285,0.015
'23:01.756',-0.275,0.020
'23:01.758',-0.270,0.015
'23:01.761',-0.275,0.010
'23:01.764',-0.280,-0.010
'23:01.767',-0.285,-0.010
'23:01.769',-0.285,-0.015
'23:01.772',-0.275,0.000
'23:01.775',-0.275,-0.010
'23:01.778',-0.280,-0.025
'23:01.781',-0.285,-0.035
'23:01.783',-0.290,-0.035
'23:01.786',-0.295,-0.030
'23:01.789',-0.295,-0.020
'23:01.792',-0.285,-0.030
'23:01.794',-0.290,-0.045
'23:01.797',-0.295,-0.055
'23:01.800',-0.305,-0.070
'23:01.803',-0.300,-0.050
'23:01.806',-0.290,-0.050
'23:01.808',-0.285,-0.065
'23:01.811',-0.290,-0.060
'23:01.814',-0.300,-0.075
'23:01.817',-0.305,-0.080
'23:01.819',-0.310,-0.075
'23:01.822',-0.300,-0.055
'23:01.825',-0.290,-0.070
'23:01.828',-0.290,-0.075
'23:01.831',-0.285,-0.085
'23:01.833',-0.305,-0.090
'23:01.836',-0.295,-0.080
'23:01.839',-0.295,-0.075
'23:01.842',-0.295,-0.075
'23:01.844',-0.295,-0.090
'23:01.847',-0.295,-0.100
'23:01.850',-0.310,-0.095
'23:01.853',-0.300,-0.090
'23:01.856',-0.295,-0.080
'23:01.858',-0.280,-0.090
'23:01.861',-0.285,-0.090
'23:01.864',-0.295,-0.105
'23:01.867',-0.315,-0.105
'23:01.869',-0.305,-0.105
'23:01.872',-0.290,-0.095
'23:01.875',-0.295,-0.095
'23:01.878',-0.295,-0.100
'23:01.881',-0.300,-0.105
'23:01.883',-0.300,-0.125
'23:01.886',-0.310,-0.115
'23:01.889',-0.300,-0.095
'23:01.892',-0.295,-0.095
'23:01.894',-0.285,-0.105
'23:01.897',-0.305,-0.115
'23:01.900',-0.305,-0.120
'23:01.903',-0.300,-0.125
'23:01.906',-0.295,-0.110
'23:01.908',-0.285,-0.100
'23:01.911',-0.290,-0.110
'23:01.914',-0.310,-0.125
'23:01.917',-0.330,-0.140
'23:01.919',-0.305,-0.120
'23:01.922',-0.300,-0.105
'23:01.925',-0.295,-0.120
'23:01.928',-0.300,-0.120
'23:01.931',-0.310,-0.115
'23:01.933',-0.325,-0.140
'23:01.936',-0.300,-0.125
'23:01.939',-0.300,-0.110
'23:01.942',-0.290,-0.105
'23:01.944',-0.290,-0.115
'23:01.947',-0.300,-0.140
'23:01.950',-0.310,-0.130
'23:01.953',-0.305,-0.120
'23:01.956',-0.290,-0.115
'23:01.958',-0.280,-0.120
'23:01.961',-0.285,-0.115
'23:01.964',-0.295,-0.135
'23:01.967',-0.305,-0.130
'23:01.969',-0.300,-0.130
'23:01.972',-0.285,-0.120
'23:01.975',-0.285,-0.115
'23:01.978',-0.280,-0.110
'23:01.981',-0.285,-0.130
'23:01.983',-0.300,-0.135
'23:01.986',-0.290,-0.125
'23:01.989',-0.275,-0.105
'23:01.992',-0.265,-0.100
'23:01.994',-0.275,-0.090
'23:01.997',-0.270,-0.100
'23:02.000',-0.280,-0.080
'23:02.003',-0.255,0.010
'23:02.006',-0.245,0.235
'23:02.008',-0.220,0.605
'23:02.011',-0.185,0.895
'23:02.014',-0.150,0.870
'23:02.017',-0.085,0.600
'23:02.019',0.110,0.385
'23:02.022',0.490,0.310
'23:02.025',0.830,0.260
'23:02.028',0.860,0.200
'23:02.031',0.595,0.130
'23:02.033',0.275,0.055
'23:02.036',0.140,-0.035
'23:02.039',0.125,-0.135
'23:02.042',0.160,-0.275
'23:02.044',0.170,-0.435
'23:02.047',0.155,-0.620
'23:02.050',0.150,-0.815
'23:02.053',0.145,-1.005
'23:02.056',0.155,-1.160
'23:02.058',0.175,-1.310
'23:02.061',0.170,-1.445
'23:02.064',0.160,-1.580
'23:02.067',0.130,-1.720
'23:02.069',0.130,-1.885
'23:02.072',0.140,-2.065
'23:02.075',0.155,-2.270
'23:02.078',0.155,-2.425
'23:02.081',0.135,-2.555
'23:02.083',0.105,-2.650
'23:02.086',0.085,-2.740
'23:02.089',0.060,-2.815
'23:02.092',0.030,-2.880
'23:02.094',-0.020,-2.940
'23:02.097',-0.080,-2.985
'23:02.100',-0.150,-3.015
'23:02.103',-0.195,-3.020
'23:02.106',-0.240,-3.025
'23:02.108',-0.305,-3.030
'23:02.111',-0.375,-3.035
'23:02.114',-0.445,-3.050
'23:02.117',-0.515,-3.060
'23:02.119',-0.520,-3.035
'23:02.122',-0.485,-3.025
'23:02.125',-0.430,-3.000
'23:02.128',-0.405,-2.985
'23:02.131',-0.380,-2.950
'23:02.133',-0.395,-2.890
'23:02.136',-0.385,-2.790
'23:02.139',-0.385,-2.660
'23:02.142',-0.385,-2.540
'23:02.144',-0.385,-2.390
'23:02.147',-0.390,-2.225
'23:02.150',-0.390,-2.025
'23:02.153',-0.355,-1.780
'23:02.156',-0.325,-1.535
'23:02.158',-0.295,-1.300
'23:02.161',-0.270,-1.060
'23:02.164',-0.285,-0.840
'23:02.167',-0.310,-0.640
'23:02.169',-0.315,-0.415
'23:02.172',-0.320,-0.220
'23:02.175',-0.315,-0.060
'23:02.178',-0.330,0.110
'23:02.181',-0.345,0.255
'23:02.183',-0.360,0.395
'23:02.186',-0.350,0.530
'23:02.189',-0.340,0.630
'23:02.192',-0.320,0.705
'23:02.194',-0.310,0.750
'23:02.197',-0.330,0.780
'23:02.200',-0.340,0.825
'23:02.203',-0.340,0.865
'23:02.206',-0.325,0.905
'23:02.208',-0.315,0.925
'23:02.211',-0.310,0.955
'23:02.214',-0.295,0.960
'23:02.217',-0.305,0.970
'23:02.219',-0.305,0.990
'23:02.222',-0.305,1.010
'23:02.225',-0.300,1.035
'23:02.228',-0.295,1.050
'23:02.231',-0.310,1.050
'23:02.233',-0.310,1.045
'23:02.236',-0.300,1.065
'23:02.239',-0.285,1.095
'23:02.242',-0.260,1.100
'23:02.244',-0.270,1.105
'23:02.247',-0.285,1.105
'23:02.250',-0.300,1.120
'23:02.253',-0.305,1.155
'23:02.256',-0.305,1.175
'23:02.258',-0.290,1.185
'23:02.261',-0.305,1.210
'23:02.264',-0.305,1.230
'23:02.267',-0.325,1.255
'23:02.269',-0.325,1.305
'23:02.272',-0.335,1.340
'23:02.275',-0.345,1.360
'23:02.278',-0.350,1.375
'23:02.281',-0.380,1.400
'23:02.283',-0.390,1.425
'23:02.286',-0.385,1.460
'23:02.289',-0.400,1.495
'23:02.292',-0.385,1.520
'23:02.294',-0.380,1.555
'23:02.297',-0.390,1.565
'23:02.300',-0.410,1.595
'23:02.303',-0.405,1.630
'23:02.306',-0.395,1.660
'23:02.308',-0.385,1.685
'23:02.311',-0.375,1.700
'23:02.314',-0.385,1.705
'23:02.317',-0.385,1.715
'23:02.319',-0.385,1.735
'23:02.322',-0.360,1.755
'23:02.325',-0.345,1.750
'23:02.328',-0.340,1.765
'23:02.331',-0.335,1.760
'23:02.333',-0.350,1.750
'23:02.336',-0.330,1.740
'23:02.339',-0.325,1.725
'23:02.342',-0.305,1.710
'23:02.344',-0.290,1.680
'23:02.347',-0.290,1.645
'23:02.350',-0.295,1.605
'23:02.353',-0.280,1.570
'23:02.356',-0.260,1.530
'23:02.358',-0.235,1.485
'23:02.361',-0.225,1.430
'23:02.364',-0.215,1.355
'23:02.367',-0.220,1.290
'23:02.369',-0.220,1.250
'23:02.372',-0.200,1.190
'23:02.375',-0.190,1.115
'23:02.378',-0.180,1.055
'23:02.381',-0.180,0.990
'23:02.383',-0.195,0.920
'23:02.386',-0.185,0.865
'23:02.389',-0.180,0.800
'23:02.392',-0.175,0.750
'23:02.394',-0.160,0.700
'23:02.397',-0.175,0.630
'23:02.400',-0.170,0.565
'23:02.403',-0.165,0.530
'23:02.406',-0.165,0.490
'23:02.408',-0.160,0.445
'23:02.411',-0.150,0.400
'23:02.414',-0.175,0.360
'23:02.417',-0.180,0.325
'23:02.419',-0.185,0.295
'23:02.422',-0.180,0.300
'23:02.425',-0.180,0.255
'23:02.428',-0.175,0.225
'23:02.431',-0.185,0.195
'23:02.433',-0.200,0.165
'23:02.436',-0.190,0.165
'23:02.439',-0.190,0.155
'23:02.442',-0.185,0.135
'23:02.444',-0.190,0.130
'23:02.447',-0.210,0.100
'23:02.450',-0.215,0.090
'23:02.453',-0.220,0.105
'23:02.456',-0.215,0.105
'23:02.458',-0.215,0.090
'23:02.461',-0.225,0.080
'23:02.464',-0.225,0.070
'23:02.467',-0.230,0.070
'23:02.469',-0.230,0.085
'23:02.472',-0.220,0.080
'23:02.475',-0.215,0.075
'23:02.478',-0.205,0.065
'23:02.481',-0.220,0.060
'23:02.483',-0.235,0.045
'23:02.486',-0.230,0.060
'23:02.489',-0.245,0.065
'23:02.492',-0.230,0.075
'23:02.494',-0.235,0.070
'23:02.497',-0.250,0.065
'23:02.500',-0.260,0.045
'23:02.503',-0.245,0.055
'23:02.506',-0.235,0.070
'23:02.508',-0.225,0.070
'23:02.511',-0.220,0.070
'23:02.514',-0.225,0.050
'23:02.517',-0.240,0.055
'23:02.519',-0.235,0.055
'23:02.522',-0.235,0.060
'23:02.525',-0.235,0.055
'23:02.528',-0.230,0.050
'23:02.531',-0.255,0.045
'23:02.533',-0.265,0.035
'23:02.536',-0.250,0.060
'23:02.539',-0.255,0.065
'23:02.542',-0.250,0.050
'23:02.544',-0.255,0.050
'23:02.547',-0.265,0.040
'23:02.550',-0.265,0.035
'23:02.553',-0.245,0.045
'23:02.556',-0.235,0.040
'23:02.558',-0.230,0.030
'23:02.561',-0.235,0.030
'23:02.564',-0.255,0.010
'23:02.567',-0.270,-0.005
'23:02.569',-0.265,0.000
'23:02.572',-0.255,0.005
'23:02.575',-0.245,0.010
'23:02.578',-0.255,0.000
'23:02.581',-0.265,-0.015
'23:02.583',-0.275,-0.025
'23:02.586',-0.270,-0.020
'23:02.589',-0.245,-0.020
'23:02.592',-0.235,-0.020
'23:02.594',-0.235,-0.035
'23:02.597',-0.235,-0.055
'23:02.600',-0.255,-0.055
'23:02.603',-0.250,-0.030
'23:02.606',-0.265,-0.040
'23:02.608',-0.255,-0.055
'23:02.611',-0.260,-0.065
'23:02.614',-0.280,-0.080
'23:02.617',-0.280,-0.080
'23:02.619',-0.270,-0.080
'23:02.622',-0.265,-0.080
'23:02.625',-0.245,-0.085
'23:02.628',-0.260,-0.090
'23:02.631',-0.270,-0.105
'23:02.633',-0.285,-0.105
'23:02.636',-0.280,-0.110
'23:02.639',-0.260,-0.100
'23:02.642',-0.270,-0.110
'23:02.644',-0.275,-0.120
'23:02.647',-0.270,-0.125
'23:02.650',-0.275,-0.130
'23:02.653',-0.275,-0.120
'23:02.656',-0.255,-0.120
'23:02.658',-0.245,-0.120
'23:02.661',-0.250,-0.120
'23:02.664',-0.270,-0.150
'23:02.667',-0.275,-0.135
'23:02.669',-0.285,-0.140
'23:02.672',-0.265,-0.130
'23:02.675',-0.255,-0.135
'23:02.678',-0.265,-0.140
'23:02.681',-0.245,-0.150
'23:02.683',-0.265,-0.170
'23:02.686',-0.265,-0.160
'23:02.689',-0.275,-0.140
'23:02.692',-0.270,-0.155
'23:02.694',-0.280,-0.155
'23:02.697',-0.270,-0.170
'23:02.700',-0.265,-0.165
'23:02.703',-0.255,-0.160
'23:02.706',-0.250,-0.150
'23:02.708',-0.235,-0.165
'23:02.711',-0.230,-0.155
'23:02.714',-0.245,-0.175
'23:02.717',-0.260,-0.180
'23:02.719',-0.255,-0.170
'23:02.722',-0.255,-0.160
'23:02.725',-0.260,-0.160
'23:02.728',-0.265,-0.170
'23:02.731',-0.270,-0.175
'23:02.733',-0.275,-0.185
'23:02.736',-0.275,-0.170
'23:02.739',-0.255,-0.170
'23:02.742',-0.240,-0.175
'23:02.744',-0.245,-0.175
'23:02.747',-0.250,-0.180
'23:02.750',-0.260,-0.195
'23:02.753',-0.265,-0.185
'23:02.756',-0.245,-0.175
'23:02.758',-0.255,-0.175
'23:02.761',-0.250,-0.175
'23:02.764',-0.270,-0.190
'23:02.767',-0.270,-0.190
'23:02.769',-0.260,-0.180
'23:02.772',-0.250,-0.175
'23:02.775',-0.235,-0.170
'23:02.778',-0.250,-0.180
'23:02.781',-0.260,-0.195
'23:02.783',-0.280,-0.190
'23:02.786',-0.265,-0.195
'23:02.789',-0.245,-0.180
'23:02.792',-0.230,-0.175
'23:02.794',-0.235,-0.180
'23:02.797',-0.235,-0.195
'23:02.800',-0.245,-0.205
'23:02.803',-0.240,-0.180
'23:02.806',-0.245,-0.175
'23:02.808',-0.240,-0.185
'23:02.811',-0.240,-0.180
'23:02.814',-0.240,-0.190
'23:02.817',-0.235,-0.200
'23:02.819',-0.230,-0.190
'23:02.822',-0.225,-0.185
'23:02.825',-0.225,-0.180
'23:02.828',-0.230,-0.170
'23:02.831',-0.230,-0.175
'23:02.833',-0.245,-0.175
'23:02.836',-0.250,-0.160
'23:02.839',-0.230,-0.120
'23:02.842',-0.205,-0.045
'23:02.844',-0.190,0.115
'23:02.847',-0.170,0.455
'23:02.850',-0.140,0.760
'23:02.853',-0.105,0.765
'23:02.856',-0.015,0.565
'23:02.858',0.130,0.350
'23:02.861',0.425,0.265
'23:02.864',0.765,0.200
'23:02.867',0.865,0.140
'23:02.869',0.675,0.095
'23:02.872',0.400,0.040
'23:02.875',0.230,-0.055
'23:02.878',0.170,-0.170
'23:02.881',0.175,-0.300
'23:02.883',0.160,-0.435
'23:02.886',0.175,-0.595
'23:02.889',0.170,-0.760
'23:02.892',0.170,-0.975
'23:02.894',0.175,-1.160
'23:02.897',0.180,-1.330
'23:02.900',0.185,-1.475
'23:02.903',0.180,-1.600
'23:02.906',0.175,-1.735
'23:02.908',0.155,-1.900
'23:02.911',0.145,-2.080
'23:02.914',0.150,-2.280
'23:02.917',0.155,-2.455
'23:02.919',0.170,-2.565
'23:02.922',0.160,-2.640
'23:02.925',0.145,-2.715
'23:02.928',0.095,-2.810
'23:02.931',0.035,-2.895
'23:02.933',-0.030,-2.960
'23:02.936',-0.085,-2.985
'23:02.939',-0.110,-3.010
'23:02.942',-0.160,-3.015
'23:02.944',-0.225,-3.045
'23:02.947',-0.305,-3.050
'23:02.950',-0.405,-3.065
'23:02.953',-0.505,-3.065
'23:02.956',-0.570,-3.060
'23:02.958',-0.590,-3.050
'23:02.961',-0.560,-3.050
'23:02.964',-0.535,-3.055
'23:02.967',-0.505,-3.040
'23:02.969',-0.480,-3.000
'23:02.972',-0.465,-2.930
'23:02.975',-0.465,-2.845
'23:02.978',-0.450,-2.745
'23:02.981',-0.460,-2.620
'23:02.983',-0.450,-2.460
'23:02.986',-0.440,-2.290
'23:02.989',-0.410,-2.085
'23:02.992',-0.380,-1.875
'23:02.994',-0.355,-1.670
'23:02.997',-0.320,-1.465
'23:03.000',-0.305,-1.215
'23:03.003',-0.280,-0.985
'23:03.006',-0.275,-0.770
'23:03.008',-0.290,-0.600
'23:03.011',-0.320,-0.405
'23:03.014',-0.325,-0.245
'23:03.017',-0.325,-0.080
'23:03.019',-0.310,0.080
'23:03.022',-0.295,0.240
'23:03.025',-0.290,0.370
'23:03.028',-0.285,0.485
'23:03.031',-0.295,0.565
'23:03.033',-0.295,0.625
'23:03.036',-0.280,0.685
'23:03.039',-0.270,0.745
'23:03.042',-0.255,0.770
'23:03.044',-0.255,0.810
'23:03.047',-0.240,0.840
'23:03.050',-0.245,0.860
'23:03.053',-0.225,0.905
'23:03.056',-0.195,0.940
'23:03.058',-0.190,0.955
'23:03.061',-0.185,0.960
'23:03.064',-0.215,0.965
'23:03.067',-0.225,0.970
'23:03.069',-0.230,0.995
'23:03.072',-0.225,1.015
'23:03.075',-0.220,1.030
'23:03.078',-0.225,1.050
'23:03.081',-0.220,1.060
'23:03.083',-0.220,1.070
'23:03.086',-0.215,1.070
'23:03.089',-0.205,1.105
'23:03.092',-0.220,1.115
'23:03.094',-0.215,1.120
'23:03.097',-0.215,1.120
'23:03.100',-0.215,1.130
'23:03.103',-0.230,1.170
'23:03.106',-0.230,1.190
'23:03.108',-0.225,1.210
'23:03.111',-0.210,1.235
'23:03.114',-0.225,1.255
'23:03.117',-0.225,1.305
'23:03.119',-0.225,1.345
'23:03.122',-0.230,1.380
'23:03.125',-0.220,1.400
'23:03.128',-0.210,1.430
'23:03.131',-0.230,1.450
'23:03.133',-0.245,1.470
'23:03.136',-0.270,1.505
'23:03.139',-0.260,1.535
'23:03.142',-0.265,1.570
'23:03.144',-0.265,1.580
'23:03.147',-0.265,1.580
'23:03.150',-0.265,1.610
'23:03.153',-0.245,1.635
'23:03.156',-0.215,1.665
'23:03.158',-0.200,1.680
'23:03.161',-0.205,1.685
'23:03.164',-0.215,1.690
'23:03.167',-0.230,1.695
'23:03.169',-0.245,1.705
'23:03.172',-0.235,1.710
'23:03.175',-0.235,1.710
'23:03.178',-0.215,1.695
'23:03.181',-0.200,1.680
'23:03.183',-0.175,1.640
'23:03.186',-0.160,1.635
'23:03.189',-0.145,1.625
'23:03.192',-0.155,1.590
'23:03.194',-0.150,1.555
'23:03.197',-0.150,1.500
'23:03.200',-0.150,1.475
'23:03.203',-0.140,1.430
'23:03.206',-0.115,1.395
'23:03.208',-0.105,1.335
'23:03.211',-0.075,1.275
'23:03.214',-0.070,1.210
'23:03.217',-0.065,1.140
'23:03.219',-0.065,1.085
'23:03.222',-0.070,1.040
'23:03.225',-0.070,0.975
'23:03.228',-0.085,0.905
'23:03.231',-0.095,0.840
'23:03.233',-0.090,0.785
'23:03.236',-0.085,0.735
'23:03.239',-0.060,0.690
'23:03.242',-0.060,0.630
'23:03.244',-0.065,0.590
'23:03.247',-0.070,0.520
'23:03.250',-0.090,0.485
'23:03.253',-0.090,0.445
'23:03.256',-0.080,0.430
'23:03.258',-0.075,0.385
'23:03.261',-0.085,0.355
'23:03.264',-0.115,0.315
'23:03.267',-0.140,0.290
'23:03.269',-0.130,0.275
'23:03.272',-0.120,0.270
'23:03.275',-0.110,0.240
'23:03.278',-0.110,0.215
'23:03.281',-0.115,0.190
'23:03.283',-0.140,0.170
'23:03.286',-0.140,0.175
'23:03.289',-0.135,0.175
'23:03.292',-0.140,0.160
'23:03.294',-0.150,0.155
'23:03.297',-0.165,0.140
'23:03.300',-0.190,0.140
'23:03.303',-0.175,0.145
'23:03.306',-0.150,0.140
'23:03.308',-0.160,0.130
'23:03.311',-0.145,0.130
'23:03.314',-0.155,0.120
'23:03.317',-0.160,0.110
'23:03.319',-0.165,0.125
'23:03.322',-0.165,0.130
'23:03.325',-0.145,0.130
'23:03.328',-0.150,0.120
'23:03.331',-0.155,0.120
'23:03.333',-0.170,0.110
'23:03.336',-0.180,0.135
'23:03.339',-0.160,0.140
'23:03.342',-0.170,0.125
'23:03.344',-0.150,0.115
'23:03.347',-0.160,0.110
'23:03.350',-0.160,0.115
'23:03.353',-0.165,0.130
'23:03.356',-0.170,0.135
'23:03.358',-0.170,0.130
'23:03.361',-0.160,0.120
'23:03.364',-0.170,0.115
'23:03.367',-0.210,0.120
'23:03.369',-0.200,0.135
'23:03.372',-0.180,0.130
'23:03.375',-0.180,0.135
'23:03.378',-0.185,0.125
'23:03.381',-0.195,0.110
'23:03.383',-0.210,0.110
'23:03.386',-0.195,0.115
'23:03.389',-0.180,0.130
'23:03.392',-0.170,0.115
'23:03.394',-0.165,0.115
'23:03.397',-0.175,0.105
'23:03.400',-0.215,0.095
'23:03.403',-0.195,0.100
'23:03.406',-0.190,0.105
'23:03.408',-0.175,0.100
'23:03.411',-0.185,0.105
'23:03.414',-0.195,0.080
'23:03.417',-0.205,0.070
'23:03.419',-0.205,0.085
'23:03.422',-0.190,0.090
'23:03.425',-0.190,0.085
'23:03.428',-0.190,0.075
'23:03.431',-0.205,0.055
'23:03.433',-0.225,0.045
'23:03.436',-0.205,0.045
'23:03.439',-0.200,0.060
'23:03.442',-0.200,0.040
'23:03.444',-0.210,0.045
'23:03.447',-0.205,0.030
'23:03.450',-0.220,0.020
'23:03.453',-0.215,0.025
'23:03.456',-0.205,0.030
'23:03.458',-0.195,0.020
'23:03.461',-0.200,0.030
'23:03.464',-0.220,0.010
'23:03.467',-0.230,0.010
'23:03.469',-0.230,0.005
'23:03.472',-0.205,0.005
'23:03.475',-0.195,0.015
'23:03.478',-0.200,0.005
'23:03.481',-0.220,-0.015
'23:03.483',-0.220,-0.015
'23:03.486',-0.220,-0.005
'23:03.489',-0.210,0.000
'23:03.492',-0.200,-0.005
'23:03.494',-0.200,-0.020
'23:03.497',-0.215,-0.035
'23:03.500',-0.220,-0.030
'23:03.503',-0.225,-0.030
'23:03.506',-0.215,-0.030
'23:03.508',-0.210,-0.030
'23:03.511',-0.205,-0.035
'23:03.514',-0.220,-0.050
'23:03.517',-0.225,-0.050
'23:03.519',-0.225,-0.050
'23:03.522',-0.220,-0.040
'23:03.525',-0.205,-0.045
'23:03.528',-0.220,-0.050
'23:03.531',-0.230,-0.070
'23:03.533',-0.225,-0.060
'23:03.536',-0.230,-0.055
'23:03.539',-0.225,-0.050
'23:03.542',-0.215,-0.055
'23:03.544',-0.215,-0.065
'23:03.547',-0.220,-0.065
'23:03.550',-0.245,-0.075
'23:03.553',-0.245,-0.065
'23:03.556',-0.235,-0.060
'23:03.558',-0.225,-0.065
'23:03.561',-0.240,-0.065
'23:03.564',-0.235,-0.070
'23:03.567',-0.245,-0.080
'23:03.569',-0.245,-0.070
'23:03.572',-0.230,-0.065
'23:03.575',-0.225,-0.065
'23:03.578',-0.235,-0.070
'23:03.581',-0.240,-0.085
'23:03.583',-0.245,-0.090
'23:03.586',-0.245,-0.075
'23:03.589',-0.235,-0.075
'23:03.592',-0.245,-0.075
'23:03.594',-0.240,-0.070
'23:03.597',-0.240,-0.090
'23:03.600',-0.255,-0.090
'23:03.603',-0.245,-0.080
'23:03.606',-0.240,-0.065
'23:03.608',-0.235,-0.085
'23:03.611',-0.235,-0.090
'23:03.614',-0.240,-0.095
'23:03.617',-0.245,-0.095
'23:03.619',-0.250,-0.090
'23:03.622',-0.245,-0.100
'23:03.625',-0.235,-0.100
'23:03.628',-0.240,-0.095
'23:03.631',-0.240,-0.110
'23:03.633',-0.255,-0.110
'23:03.636',-0.255,-0.095
'23:03.639',-0.245,-0.095
'23:03.642',-0.235,-0.105
'23:03.644',-0.240,-0.105
'23:03.647',-0.245,-0.100
'23:03.650',-0.250,-0.115
'23:03.653',-0.250,-0.100
'23:03.656',-0.250,-0.085
'23:03.658',-0.235,-0.100
'23:03.661',-0.235,-0.100
'23:03.664',-0.240,-0.105
'23:03.667',-0.250,-0.100
'23:03.669',-0.240,-0.095
'23:03.672',-0.235,-0.080
'23:03.675',-0.225,-0.075
'23:03.678',-0.220,-0.070
'23:03.681',-0.220,-0.045
'23:03.683',-0.220,0.040
'23:03.686',-0.205,0.275
'23:03.689',-0.170,0.620
'23:03.692',-0.135,0.820
'23:03.694',-0.095,0.730
'23:03.697',0.015,0.495
'23:03.700',0.240,0.365
'23:03.703',0.600,0.325
'23:03.706',0.825,0.310
'23:03.708',0.775,0.250
'23:03.711',0.495,0.200
'23:03.714',0.270,0.140
'23:03.717',0.185,0.050
'23:03.719',0.205,-0.050
'23:03.722',0.225,-0.180
'23:03.725',0.220,-0.350
'23:03.728',0.225,-0.520
'23:03.731',0.220,-0.725
'23:03.733',0.230,-0.910
'23:03.736',0.230,-1.070
'23:03.739',0.245,-1.210
'23:03.742',0.260,-1.375
'23:03.744',0.245,-1.520
'23:03.747',0.210,-1.680
'23:03.750',0.195,-1.870
'23:03.753',0.205,-2.090
'23:03.756',0.215,-2.255
'23:03.758',0.220,-2.395
'23:03.761',0.190,-2.510
'23:03.764',0.145,-2.615
'23:03.767',0.105,-2.715
'23:03.769',0.055,-2.805
'23:03.772',0.025,-2.865
'23:03.775',-0.040,-2.900
'23:03.778',-0.100,-2.940
'23:03.781',-0.160,-2.965
'23:03.783',-0.220,-3.005
'23:03.786',-0.275,-3.005
'23:03.789',-0.345,-2.990
'23:03.792',-0.415,-3.005
'23:03.794',-0.505,-3.015
'23:03.797',-0.530,-3.020
'23:03.800',-0.535,-3.015
'23:03.803',-0.500,-2.990
'23:03.806',-0.455,-2.970
'23:03.808',-0.425,-2.950
'23:03.811',-0.410,-2.895
'23:03.814',-0.430,-2.815
'23:03.817',-0.425,-2.705
'23:03.819',-0.435,-2.580
'23:03.822',-0.415,-2.425
'23:03.825',-0.410,-2.260
'23:03.828',-0.385,-2.075
'23:03.831',-0.380,-1.885
'23:03.833',-0.350,-1.650
'23:03.836',-0.310,-1.390
'23:03.839',-0.285,-1.155
'23:03.842',-0.270,-0.915
'23:03.844',-0.280,-0.725
'23:03.847',-0.305,-0.535
'23:03.850',-0.330,-0.345
'23:03.853',-0.340,-0.165
'23:03.856',-0.320,0.005
'23:03.858',-0.325,0.150
'23:03.861',-0.335,0.305
'23:03.864',-0.345,0.425
'23:03.867',-0.355,0.525
'23:03.869',-0.330,0.620
'23:03.872',-0.310,0.685
'23:03.875',-0.290,0.740
'23:03.878',-0.290,0.790
'23:03.881',-0.300,0.815
'23:03.883',-0.310,0.850
'23:03.886',-0.315,0.905
'23:03.889',-0.300,0.940
'23:03.892',-0.290,0.945
'23:03.894',-0.280,0.970
'23:03.897',-0.305,0.970
'23:03.900',-0.305,0.970
'23:03.903',-0.300,1.005
'23:03.906',-0.285,1.045
'23:03.908',-0.260,1.055
'23:03.911',-0.275,1.055
'23:03.914',-0.275,1.070
'23:03.917',-0.280,1.075
'23:03.919',-0.280,1.090
'23:03.922',-0.280,1.120
'23:03.925',-0.270,1.125
'23:03.928',-0.290,1.145
'23:03.931',-0.300,1.155
'23:03.933',-0.305,1.170
'23:03.936',-0.300,1.210
'23:03.939',-0.300,1.230
'23:03.942',-0.300,1.265
'23:03.944',-0.300,1.295
'23:03.947',-0.320,1.320
'23:03.950',-0.335,1.350
'23:03.953',-0.345,1.400
'23:03.956',-0.350,1.430
'23:03.958',-0.350,1.450
'23:03.961',-0.365,1.490
'23:03.964',-0.375,1.500
'23:03.967',-0.385,1.525
'23:03.969',-0.370,1.565
'23:03.972',-0.370,1.615
'23:03.975',-0.380,1.625
'23:03.978',-0.375,1.645
'23:03.981',-0.375,1.660
'23:03.983',-0.375,1.675
'23:03.986',-0.380,1.705
'23:03.989',-0.370,1.735
'23:03.992',-0.365,1.750
'23:03.994',-0.365,1.755
'23:03.997',-0.370,1.765
'23:04.000',-0.385,1.765
'23:04.003',-0.365,1.780
'23:04.006',-0.360,1.790
'23:04.008',-0.335,1.790
'23:04.011',-0.330,1.775
'23:04.014',-0.320,1.750
'23:04.017',-0.330,1.735
'23:04.019',-0.310,1.725
'23:04.022',-0.285,1.715
'23:04.025',-0.270,1.675
'23:04.028',-0.260,1.660
'23:04.031',-0.260,1.605
'23:04.033',-0.255,1.560
'23:04.036',-0.245,1.515
'23:04.039',-0.225,1.480
'23:04.042',-0.210,1.415
'23:04.044',-0.190,1.340
'23:04.047',-0.190,1.280
'23:04.050',-0.195,1.210
'23:04.053',-0.170,1.165
'23:04.056',-0.160,1.110
'23:04.058',-0.150,1.050
'23:04.061',-0.150,0.985
'23:04.064',-0.150,0.910
'23:04.067',-0.165,0.855
'23:04.069',-0.140,0.795
'23:04.072',-0.125,0.760
'23:04.075',-0.120,0.715
'23:04.078',-0.130,0.660
'23:04.081',-0.145,0.595
'23:04.083',-0.155,0.545
'23:04.086',-0.150,0.515
'23:04.089',-0.140,0.500
'23:04.092',-0.145,0.455
'23:04.094',-0.145,0.420
'23:04.097',-0.160,0.370
'23:04.100',-0.175,0.340
'23:04.103',-0.185,0.325
'23:04.106',-0.160,0.310
'23:04.108',-0.170,0.290
'23:04.111',-0.175,0.280
'23:04.114',-0.185,0.245
'23:04.117',-0.205,0.230
'23:04.119',-0.215,0.240
'23:04.122',-0.200,0.230
'23:04.125',-0.190,0.230
'23:04.128',-0.190,0.210
'23:04.131',-0.200,0.190
'23:04.133',-0.215,0.190
'23:04.136',-0.210,0.195
'23:04.139',-0.215,0.195
'23:04.142',-0.195,0.185
'23:04.144',-0.205,0.180
'23:04.147',-0.215,0.165
'23:04.150',-0.225,0.170
'23:04.153',-0.225,0.165
'23:04.156',-0.230,0.180
'23:04.158',-0.210,0.175
'23:04.161',-0.215,0.165
'23:04.164',-0.200,0.155
'23:04.167',-0.220,0.170
'23:04.169',-0.225,0.165
'23:04.172',-0.210,0.175
'23:04.175',-0.210,0.170
'23:04.178',-0.215,0.175
'23:04.181',-0.220,0.160
'23:04.183',-0.235,0.160
'23:04.186',-0.235,0.165
'23:04.189',-0.215,0.175
'23:04.192',-0.210,0.175
'23:04.194',-0.225,0.170
'23:04.197',-0.220,0.150
'23:04.200',-0.225,0.160
'23:04.203',-0.230,0.170
'23:04.206',-0.220,0.180
'23:04.208',-0.220,0.185
'23:04.211',-0.210,0.175
'23:04.214',-0.220,0.160
'23:04.217',-0.230,0.165
'23:04.219',-0.220,0.155
'23:04.222',-0.230,0.170
'23:04.225',-0.230,0.170
'23:04.228',-0.220,0.150
'23:04.231',-0.230,0.150
'23:04.233',-0.245,0.140
'23:04.236',-0.240,0.145
'23:04.239',-0.240,0.145
'23:04.242',-0.235,0.155
'23:04.244',-0.235,0.135
'23:04.247',-0.240,0.120
'23:04.250',-0.255,0.115
'23:04.253',-0.255,0.130
'23:04.256',-0.240,0.140
'23:04.258',-0.225,0.135
'23:04.261',-0.225,0.125
'23:04.264',-0.240,0.110
'23:04.267',-0.250,0.095
'23:04.269',-0.255,0.110
'23:04.272',-0.250,0.120
'23:04.275',-0.240,0.110
'23:04.278',-0.245,0.100
'23:04.281',-0.255,0.085
'23:04.283',-0.265,0.075
'23:04.286',-0.250,0.085
'23:04.289',-0.260,0.085
'23:04.292',-0.240,0.085
'23:04.294',-0.245,0.080
'23:04.297',-0.250,0.060
'23:04.300',-0.260,0.040
'23:04.303',-0.265,0.055
'23:04.306',-0.240,0.050
'23:04.308',-0.255,0.060
'23:04.311',-0.255,0.035
'23:04.314',-0.255,0.025
'23:04.317',-0.275,0.025
'23:04.319',-0.275,0.025
'23:04.322',-0.245,0.035
'23:04.325',-0.245,0.025
'23:04.328',-0.250,0.030
'23:04.331',-0.255,0.015
'23:04.333',-0.260,-0.005
'23:04.336',-0.260,0.000
'23:04.339',-0.260,0.010
'23:04.342',-0.250,0.005
'23:04.344',-0.260,-0.005
'23:04.347',-0.270,-0.020
'23:04.350',-0.275,-0.020
'23:04.353',-0.270,-0.015
'23:04.356',-0.260,-0.005
'23:04.358',-0.260,-0.015
'23:04.361',-0.255,-0.015
'23:04.364',-0.260,-0.025
'23:04.367',-0.265,-0.030
'23:04.369',-0.265,-0.020
'23:04.372',-0.260,-0.025
'23:04.375',-0.250,-0.025
'23:04.378',-0.255,-0.030
'23:04.381',-0.265,-0.040
'23:04.383',-0.270,-0.050
'23:04.386',-0.265,-0.045
'23:04.389',-0.255,-0.030
'23:04.392',-0.255,-0.035
'23:04.394',-0.265,-0.040
'23:04.397',-0.265,-0.055
'23:04.400',-0.275,-0.045
'23:04.403',-0.270,-0.050
'23:04.406',-0.255,-0.040
'23:04.408',-0.250,-0.040
'23:04.411',-0.255,-0.055
'23:04.414',-0.270,-0.065
'23:04.417',-0.270,-0.075
'23:04.419',-0.265,-0.060
'23:04.422',-0.260,-0.045
'23:04.425',-0.260,-0.050
'23:04.428',-0.245,-0.065
'23:04.431',-0.255,-0.065
'23:04.433',-0.275,-0.070
'23:04.436',-0.270,-0.075
'23:04.439',-0.255,-0.065
'23:04.442',-0.260,-0.065
'23:04.444',-0.260,-0.060
'23:04.447',-0.260,-0.075
'23:04.450',-0.270,-0.085
'23:04.453',-0.270,-0.065
'23:04.456',-0.260,-0.075
'23:04.458',-0.250,-0.065
'23:04.461',-0.250,-0.075
'23:04.464',-0.260,-0.095
'23:04.467',-0.275,-0.090
'23:04.469',-0.260,-0.095
'23:04.472',-0.270,-0.070
'23:04.475',-0.260,-0.090
'23:04.478',-0.255,-0.075
'23:04.481',-0.255,-0.095
'23:04.483',-0.270,-0.100
'23:04.486',-0.265,-0.080
'23:04.489',-0.250,-0.095
'23:04.492',-0.240,-0.085
'23:04.494',-0.240,-0.090
'23:04.497',-0.255,-0.100
'23:04.500',-0.250,-0.095
'23:04.503',-0.255,-0.090
'23:04.506',-0.240,-0.080
'23:04.508',-0.245,-0.070
'23:04.511',-0.245,-0.075
'23:04.514',-0.250,-0.095
'23:04.517',-0.260,-0.100
'23:04.519',-0.245,-0.085
'23:04.522',-0.230,-0.065
'23:04.525',-0.220,-0.045
'23:04.528',-0.225,-0.040
'23:04.531',-0.225,0.015
'23:04.533',-0.215,0.185
'23:04.536',-0.200,0.515
'23:04.539',-0.165,0.880
'23:04.542',-0.120,0.965
'23:04.544',-0.055,0.745
'23:04.547',0.065,0.470
'23:04.550',0.370,0.350
'23:04.553',0.725,0.320
'23:04.556',0.860,0.275
'23:04.558',0.685,0.210
'23:04.561',0.375,0.125
'23:04.564',0.190,0.030
'23:04.567',0.160,-0.065
'23:04.569',0.185,-0.225
'23:04.572',0.205,-0.365
'23:04.575',0.210,-0.555
'23:04.578',0.200,-0.745
'23:04.581',0.195,-0.970
'23:04.583',0.180,-1.155
'23:04.586',0.195,-1.300
'23:04.589',0.210,-1.420
'23:04.592',0.210,-1.550
'23:04.594',0.205,-1.725
'23:04.597',0.185,-1.915
'23:04.600',0.170,-2.145
'23:04.603',0.175,-2.310
'23:04.606',0.180,-2.435
'23:04.608',0.170,-2.540
'23:04.611',0.145,-2.645
'23:04.614',0.105,-2.730
'23:04.617',0.060,-2.820
'23:04.619',0.025,-2.880
'23:04.622',-0.025,-2.910
'23:04.625',-0.060,-2.935
'23:04.628',-0.135,-2.955
'23:04.631',-0.190,-3.000
'23:04.633',-0.255,-3.010
'23:04.636',-0.335,-3.005
'23:04.639',-0.405,-3.010
'23:04.642',-0.475,-3.005
'23:04.644',-0.500,-3.010
'23:04.647',-0.470,-3.015
'23:04.650',-0.440,-2.995
'23:04.653',-0.400,-2.970
'23:04.656',-0.365,-2.930
'23:04.658',-0.350,-2.875
'23:04.661',-0.350,-2.785
'23:04.664',-0.355,-2.695
'23:04.667',-0.370,-2.565
'23:04.669',-0.365,-2.410
'23:04.672',-0.355,-2.225
'23:04.675',-0.340,-2.020
'23:04.678',-0.330,-1.785
'23:04.681',-0.300,-1.555
'23:04.683',-0.260,-1.290
'23:04.686',-0.250,-1.040
'23:04.689',-0.250,-0.815
'23:04.692',-0.255,-0.610
'23:04.694',-0.275,-0.420
'23:04.697',-0.300,-0.230
'23:04.700',-0.310,-0.045
'23:04.703',-0.320,0.130
'23:04.706',-0.315,0.295
'23:04.708',-0.300,0.445
'23:04.711',-0.290,0.560
'23:04.714',-0.295,0.630
'23:04.717',-0.305,0.680
'23:04.719',-0.290,0.735
'23:04.722',-0.290,0.785
'23:04.725',-0.280,0.820
'23:04.728',-0.290,0.865
'23:04.731',-0.275,0.885
'23:04.733',-0.295,0.905
'23:04.736',-0.280,0.945
'23:04.739',-0.285,0.970
'23:04.742',-0.275,1.005
'23:04.744',-0.275,1.015
'23:04.747',-0.280,1.025
'23:04.750',-0.295,1.045
'23:04.753',-0.290,1.070
'23:04.756',-0.300,1.105
'23:04.758',-0.280,1.120
'23:04.761',-0.280,1.150
'23:04.764',-0.290,1.160
'23:04.767',-0.305,1.180
'23:04.769',-0.300,1.215
'23:04.772',-0.300,1.255
'23:04.775',-0.305,1.270
'23:04.778',-0.295,1.290
'23:04.781',-0.310,1.305
'23:04.783',-0.320,1.335
'23:04.786',-0.310,1.370
'23:04.789',-0.310,1.405
'23:04.792',-0.305,1.435
'23:04.794',-0.300,1.465
'23:04.797',-0.300,1.490
'23:04.800',-0.310,1.525
'23:04.803',-0.305,1.555
'23:04.806',-0.295,1.595
'23:04.808',-0.290,1.625
'23:04.811',-0.300,1.645
'23:04.814',-0.295,1.680
'23:04.817',-0.310,1.705
'23:04.819',-0.290,1.740
'23:04.822',-0.275,1.795
'23:04.825',-0.260,1.810
'23:04.828',-0.270,1.835
'23:04.831',-0.265,1.845
'23:04.833',-0.275,1.880
'23:04.836',-0.280,1.905
'23:04.839',-0.260,1.920
'23:04.842',-0.245,1.915
'23:04.844',-0.240,1.925
'23:04.847',-0.245,1.910
'23:04.850',-0.250,1.900
'23:04.853',-0.235,1.900
'23:04.856',-0.215,1.900
'23:04.858',-0.195,1.875
'23:04.861',-0.175,1.835
'23:04.864',-0.165,1.790
'23:04.867',-0.175,1.740
'23:04.869',-0.160,1.710
'23:04.872',-0.155,1.655
'23:04.875',-0.135,1.600
'23:04.878',-0.130,1.525
'23:04.881',-0.145,1.455
'23:04.883',-0.130,1.385
'23:04.886',-0.110,1.330
'23:04.889',-0.100,1.270
'23:04.892',-0.075,1.190
'23:04.894',-0.085,1.140
'23:04.897',-0.090,1.040
'23:04.900',-0.080,0.975
'23:04.903',-0.080,0.920
'23:04.906',-0.070,0.860
'23:04.908',-0.060,0.810
'23:04.911',-0.060,0.765
'23:04.914',-0.080,0.710
'23:04.917',-0.100,0.645
'23:04.919',-0.105,0.615
'23:04.922',-0.110,0.565
'23:04.925',-0.105,0.515
'23:04.928',-0.120,0.470
'23:04.931',-0.135,0.425
'23:04.933',-0.140,0.385
'23:04.936',-0.140,0.370
'23:04.939',-0.135,0.355
'23:04.942',-0.145,0.325
'23:04.944',-0.145,0.310
'23:04.947',-0.165,0.265
'23:04.950',-0.185,0.255
'23:04.953',-0.180,0.240
'23:04.956',-0.165,0.235
'23:04.958',-0.165,0.220
'23:04.961',-0.165,0.210
'23:04.964',-0.170,0.185
'23:04.967',-0.185,0.175
'23:04.969',-0.190,0.170
'23:04.972',-0.190,0.170
'23:04.975',-0.180,0.170
'23:04.978',-0.195,0.160
'23:04.981',-0.210,0.155
'23:04.983',-0.220,0.140
'23:04.986',-0.205,0.140
'23:04.989',-0.210,0.160
'23:04.992',-0.195,0.150
'23:04.994',-0.190,0.140
'23:04.997',-0.200,0.135
'23:05.000',-0.210,0.130
'23:05.003',-0.205,0.145
'23:05.006',-0.205,0.150
'23:05.008',-0.195,0.145
'23:05.011',-0.195,0.145
'23:05.014',-0.205,0.140
'23:05.017',-0.210,0.135
'23:05.019',-0.230,0.140
'23:05.022',-0.220,0.165
'23:05.025',-0.205,0.160
'23:05.028',-0.215,0.155
'23:05.031',-0.230,0.150
'23:05.033',-0.235,0.140
'23:05.036',-0.230,0.155
'23:05.039',-0.215,0.170
'23:05.042',-0.205,0.150
'23:05.044',-0.205,0.155
'23:05.047',-0.225,0.145
'23:05.050',-0.230,0.130
'23:05.053',-0.230,0.150
'23:05.056',-0.230,0.155
'23:05.058',-0.220,0.150
'23:05.061',-0.215,0.135
'23:05.064',-0.230,0.125
'23:05.067',-0.235,0.135
'23:05.069',-0.220,0.135
'23:05.072',-0.220,0.145
'23:05.075',-0.215,0.140
'23:05.078',-0.225,0.135
'23:05.081',-0.225,0.120
'23:05.083',-0.235,0.115
'23:05.086',-0.235,0.130
'23:05.089',-0.230,0.135
'23:05.092',-0.220,0.130
'23:05.094',-0.230,0.105
'23:05.097',-0.240,0.090
'23:05.100',-0.250,0.090
'23:05.103',-0.245,0.100
'23:05.106',-0.260,0.100
'23:05.108',-0.240,0.100
'23:05.111',-0.245,0.085
'23:05.114',-0.260,0.065
'23:05.117',-0.270,0.065
'23:05.119',-0.255,0.070
'23:05.122',-0.250,0.075
'23:05.125',-0.245,0.070
'23:05.128',-0.245,0.070
'23:05.131',-0.255,0.055
'23:05.133',-0.285,0.030
'23:05.136',-0.270,0.050
'23:05.139',-0.275,0.050
'23:05.142',-0.275,0.040
'23:05.144',-0.270,0.045
'23:05.147',-0.255,0.025
'23:05.150',-0.275,0.015
'23:05.153',-0.270,0.025
'23:05.156',-0.265,0.035
'23:05.158',-0.270,0.035
'23:05.161',-0.275,0.010
'23:05.164',-0.265,0.000
'23:05.167',-0.270,-0.005
'23:05.169',-0.250,-0.005
'23:05.172',-0.240,0.000
'23:05.175',-0.240,0.005
'23:05.178',-0.250,-0.005
'23:05.181',-0.250,-0.010
'23:05.183',-0.265,-0.015
'23:05.186',-0.265,-0.005
'23:05.189',-0.265,-0.010
'23:05.192',-0.250,-0.020
'23:05.194',-0.255,-0.020
'23:05.197',-0.255,-0.025
'23:05.200',-0.280,-0.045
'23:05.203',-0.275,-0.030
'23:05.206',-0.275,-0.025
'23:05.208',-0.255,-0.030
'23:05.211',-0.260,-0.030
'23:05.214',-0.275,-0.035
'23:05.217',-0.280,-0.055
'23:05.219',-0.280,-0.055
'23:05.222',-0.270,-0.035
'23:05.225',-0.265,-0.035
'23:05.228',-0.260,-0.040
'23:05.231',-0.260,-0.055
'23:05.233',-0.245,-0.055
'23:05.236',-0.255,-0.050
'23:05.239',-0.260,-0.045
'23:05.242',-0.255,-0.050
'23:05.244',-0.260,-0.050
'23:05.247',-0.270,-0.060
'23:05.250',-0.280,-0.070
'23:05.253',-0.280,-0.060
'23:05.256',-0.265,-0.055
'23:05.258',-0.245,-0.050
'23:05.261',-0.250,-0.065
'23:05.264',-0.265,-0.075
'23:05.267',-0.275,-0.080
'23:05.269',-0.260,-0.065
'23:05.272',-0.250,-0.055
'23:05.275',-0.230,-0.070
'23:05.278',-0.225,-0.065
'23:05.281',-0.225,-0.070
'23:05.283',-0.245,-0.080
'23:05.286',-0.245,-0.075
'23:05.289',-0.230,-0.065
'23:05.292',-0.230,-0.075
'23:05.294',-0.230,-0.085
'23:05.297',-0.245,-0.090
'23:05.300',-0.250,-0.100
'23:05.303',-0.245,-0.095
'23:05.306',-0.250,-0.090
'23:05.308',-0.220,-0.075
'23:05.311',-0.230,-0.085
'23:05.314',-0.235,-0.100
'23:05.317',-0.240,-0.105
'23:05.319',-0.235,-0.100
'23:05.322',-0.220,-0.090
'23:05.325',-0.220,-0.090
'23:05.328',-0.220,-0.095
'23:05.331',-0.235,-0.100
'23:05.333',-0.245,-0.105
'23:05.336',-0.260,-0.095
'23:05.339',-0.245,-0.090
'23:05.342',-0.230,-0.090
'23:05.344',-0.215,-0.095
'23:05.347',-0.210,-0.105
'23:05.350',-0.210,-0.100
'23:05.353',-0.195,-0.080
'23:05.356',-0.190,-0.070
'23:05.358',-0.185,-0.035
'23:05.361',-0.185,-0.010
'23:05.364',-0.180,0.090
'23:05.367',-0.185,0.370
'23:05.369',-0.155,0.775
'23:05.372',-0.115,0.990
'23:05.375',-0.055,0.815
'23:05.378',0.055,0.525
'23:05.381',0.335,0.340
'23:05.383',0.705,0.290
'23:05.386',0.875,0.250
'23:05.389',0.700,0.200
'23:05.392',0.405,0.115
'23:05.394',0.210,0.005
'23:05.397',0.175,-0.115
'23:05.400',0.185,-0.265
'23:05.403',0.210,-0.450
'23:05.406',0.210,-0.630
'23:05.408',0.215,-0.855
'23:05.411',0.215,-1.070
'23:05.414',0.225,-1.275
'23:05.417',0.230,-1.445
'23:05.419',0.205,-1.585
'23:05.422',0.205,-1.735
'23:05.425',0.180,-1.900
'23:05.428',0.170,-2.095
'23:05.431',0.165,-2.315
'23:05.433',0.155,-2.490
'23:05.436',0.170,-2.600
'23:05.439',0.180,-2.675
'23:05.442',0.165,-2.765
'23:05.444',0.130,-2.860
'23:05.447',0.085,-2.930
'23:05.450',0.000,-2.985
'23:05.453',-0.090,-2.990
'23:05.456',-0.130,-3.005
'23:05.458',-0.190,-3.030
'23:05.461',-0.255,-3.040
'23:05.464',-0.350,-3.055
'23:05.467',-0.445,-3.060
'23:05.469',-0.535,-3.040
'23:05.472',-0.575,-3.045
'23:05.475',-0.555,-3.030
'23:05.478',-0.530,-3.025
'23:05.481',-0.485,-3.020
'23:05.483',-0.480,-2.970
'23:05.486',-0.465,-2.900
'23:05.489',-0.460,-2.800
'23:05.492',-0.445,-2.685
'23:05.494',-0.440,-2.525
'23:05.497',-0.445,-2.370
'23:05.500',-0.430,-2.160
'23:05.503',-0.415,-1.915
'23:05.506',-0.380,-1.665
'23:05.508',-0.330,-1.410
'23:05.511',-0.290,-1.160
'23:05.514',-0.280,-0.935
'23:05.517',-0.285,-0.705
'23:05.519',-0.280,-0.480
'23:05.522',-0.285,-0.280
'23:05.525',-0.295,-0.100
'23:05.528',-0.300,0.065
'23:05.531',-0.310,0.215
'23:05.533',-0.300,0.370
'23:05.536',-0.275,0.495
'23:05.539',-0.270,0.590
'23:05.542',-0.255,0.665
'23:05.544',-0.260,0.705
'23:05.547',-0.275,0.730
'23:05.550',-0.270,0.755
'23:05.553',-0.255,0.795
'23:05.556',-0.220,0.835
'23:05.558',-0.220,0.860
'23:05.561',-0.230,0.880
'23:05.564',-0.240,0.895
'23:05.567',-0.240,0.915
'23:05.569',-0.235,0.950
'23:05.572',-0.220,0.980
'23:05.575',-0.210,1.000
'23:05.578',-0.215,1.025
'23:05.581',-0.220,1.025
'23:05.583',-0.220,1.045
'23:05.586',-0.205,1.080
'23:05.589',-0.225,1.105
'23:05.592',-0.225,1.120
'23:05.594',-0.230,1.140
'23:05.597',-0.250,1.160
'23:05.600',-0.240,1.175
'23:05.603',-0.215,1.215
'23:05.606',-0.205,1.245
'23:05.608',-0.220,1.255
'23:05.611',-0.225,1.280
'23:05.614',-0.245,1.300
'23:05.617',-0.260,1.320
'23:05.619',-0.245,1.350
'23:05.622',-0.240,1.395
'23:05.625',-0.225,1.415
'23:05.628',-0.235,1.450
'23:05.631',-0.240,1.455
'23:05.633',-0.250,1.480
'23:05.636',-0.235,1.520
'23:05.639',-0.225,1.560
'23:05.642',-0.205,1.595
'23:05.644',-0.195,1.595
'23:05.647',-0.200,1.605
'23:05.650',-0.205,1.630
'23:05.653',-0.200,1.665
'23:05.656',-0.185,1.690
'23:05.658',-0.160,1.705
'23:05.661',-0.140,1.720
'23:05.664',-0.145,1.740
'23:05.667',-0.165,1.740
'23:05.669',-0.160,1.750
'23:05.672',-0.155,1.765
'23:05.675',-0.145,1.765
'23:05.678',-0.130,1.760
'23:05.681',-0.120,1.735
'23:05.683',-0.120,1.715
'23:05.686',-0.100,1.710
'23:05.689',-0.080,1.715
'23:05.692',-0.075,1.680
'23:05.694',-0.075,1.635
'23:05.697',-0.090,1.590
'23:05.700',-0.080,1.550
'23:05.703',-0.075,1.510
'23:05.706',-0.065,1.475
'23:05.708',-0.035,1.415
'23:05.711',-0.010,1.345
'23:05.714',0.000,1.290
'23:05.717',0.010,1.235
'23:05.719',0.000,1.175
'23:05.722',-0.005,1.130
'23:05.725',0.005,1.070
'23:05.728',0.005,1.005
'23:05.731',0.005,0.930
'23:05.733',0.000,0.875
'23:05.736',-0.010,0.835
'23:05.739',-0.020,0.790
'23:05.742',-0.025,0.735
'23:05.744',-0.050,0.680
'23:05.747',-0.060,0.615
'23:05.750',-0.040,0.560
'23:05.753',-0.015,0.530
'23:05.756',0.005,0.500
'23:05.758',0.000,0.455
'23:05.761',-0.020,0.420
'23:05.764',-0.040,0.380
'23:05.767',-0.050,0.355
'23:05.769',-0.065,0.335
'23:05.772',-0.060,0.320
'23:05.775',-0.070,0.290
'23:05.778',-0.080,0.270
'23:05.781',-0.090,0.235
'23:05.783',-0.100,0.220
'23:05.786',-0.120,0.215
'23:05.789',-0.100,0.205
'23:05.792',-0.090,0.210
'23:05.794',-0.090,0.185
'23:05.797',-0.100,0.170
'23:05.800',-0.105,0.155
'23:05.803',-0.120,0.155
'23:05.806',-0.135,0.170
'23:05.808',-0.130,0.165
'23:05.811',-0.120,0.150
'23:05.814',-0.120,0.135
'23:05.817',-0.125,0.125
'23:05.819',-0.145,0.140
'23:05.822',-0.145,0.160
'23:05.825',-0.145,0.165
'23:05.828',-0.135,0.160
'23:05.831',-0.120,0.160
'23:05.833',-0.130,0.165
'23:05.836',-0.120,0.165
'23:05.839',-0.110,0.175
'23:05.842',-0.140,0.180
'23:05.844',-0.135,0.175
'23:05.847',-0.150,0.170
'23:05.850',-0.150,0.155
'23:05.853',-0.155,0.180
'23:05.856',-0.140,0.185
'23:05.858',-0.120,0.190
'23:05.861',-0.130,0.170
'23:05.864',-0.125,0.165
'23:05.867',-0.110,0.160
'23:05.869',-0.090,0.165
'23:05.872',-0.085,0.160
'23:05.875',-0.090,0.160
'23:05.878',-0.100,0.135
'23:05.881',-0.105,0.120
'23:05.883',-0.110,0.115
'23:05.886',-0.090,0.110
'23:05.889',-0.080,0.115
'23:05.892',-0.075,0.095
'23:05.894',-0.090,0.085
'23:05.897',-0.110,0.075
'23:05.900',-0.105,0.060
'23:05.903',-0.110,0.075
'23:05.906',-0.115,0.075
'23:05.908',-0.135,0.070
'23:05.911',-0.145,0.060
'23:05.914',-0.145,0.060
'23:05.917',-0.155,0.070
'23:05.919',-0.130,0.070
'23:05.922',-0.125,0.090
'23:05.925',-0.120,0.090
'23:05.928',-0.125,0.065
'23:05.931',-0.155,0.055
'23:05.933',-0.170,0.040
'23:05.936',-0.185,0.050
'23:05.939',-0.170,0.055
'23:05.942',-0.165,0.055
'23:05.944',-0.160,0.045
'23:05.947',-0.170,0.035
'23:05.950',-0.195,0.035
'23:05.953',-0.200,0.030
'23:05.956',-0.195,0.030
'23:05.958',-0.200,0.035
'23:05.961',-0.200,0.020
'23:05.964',-0.190,0.020
'23:05.967',-0.190,0.010
'23:05.969',-0.180,0.005
'23:05.972',-0.175,0.020
'23:05.975',-0.180,0.015
'23:05.978',-0.200,0.000
'23:05.981',-0.205,-0.020
'23:05.983',-0.215,-0.020
'23:05.986',-0.210,-0.020
'23:05.989',-0.195,-0.010
'23:05.992',-0.185,-0.015
'23:05.994',-0.185,-0.025
'23:05.997',-0.205,-0.035
'23:06.000',-0.220,-0.040
'23:06.003',-0.225,-0.040
'23:06.006',-0.210,-0.025
'23:06.008',-0.210,-0.040
'23:06.011',-0.200,-0.040
'23:06.014',-0.220,-0.045
'23:06.017',-0.230,-0.060
'23:06.019',-0.220,-0.040
'23:06.022',-0.220,-0.035
'23:06.025',-0.210,-0.040
'23:06.028',-0.205,-0.050
'23:06.031',-0.215,-0.065
'23:06.033',-0.225,-0.055
'23:06.036',-0.220,-0.065
'23:06.039',-0.220,-0.055
'23:06.042',-0.215,-0.050
'23:06.044',-0.215,-0.065
'23:06.047',-0.215,-0.070
'23:06.050',-0.230,-0.075
'23:06.053',-0.225,-0.060
'23:06.056',-0.215,-0.050
'23:06.058',-0.210,-0.065
'23:06.061',-0.210,-0.070
'23:06.064',-0.215,-0.070
'23:06.067',-0.230,-0.075
'23:06.069',-0.225,-0.070
'23:06.072',-0.225,-0.050
'23:06.075',-0.205,-0.060
'23:06.078',-0.210,-0.060
'23:06.081',-0.225,-0.080
'23:06.083',-0.235,-0.080
'23:06.086',-0.215,-0.060
'23:06.089',-0.210,-0.055
'23:06.092',-0.200,-0.060
'23:06.094',-0.205,-0.080
'23:06.097',-0.215,-0.075
'23:06.100',-0.230,-0.090
'23:06.103',-0.215,-0.085
'23:06.106',-0.220,-0.060
'23:06.108',-0.225,-0.080
'23:06.111',-0.220,-0.075
'23:06.114',-0.225,-0.085
'23:06.117',-0.225,-0.085
'23:06.119',-0.230,-0.085
'23:06.122',-0.215,-0.070
'23:06.125',-0.230,-0.070
'23:06.128',-0.225,-0.080
'23:06.131',-0.225,-0.090
'23:06.133',-0.230,-0.080
'23:06.136',-0.220,-0.080
'23:06.139',-0.220,-0.070
'23:06.142',-0.215,-0.065
'23:06.144',-0.210,-0.085
'23:06.147',-0.225,-0.090
'23:06.150',-0.240,-0.100
'23:06.153',-0.230,-0.095
'23:06.156',-0.210,-0.075
'23:06.158',-0.205,-0.085
'23:06.161',-0.210,-0.085
'23:06.164',-0.220,-0.090
'23:06.167',-0.215,-0.095
'23:06.169',-0.205,-0.090
'23:06.172',-0.200,-0.075
'23:06.175',-0.195,-0.075
'23:06.178',-0.185,-0.070
'23:06.181',-0.195,-0.075
'23:06.183',-0.200,-0.045
'23:06.186',-0.200,0.030
'23:06.189',-0.165,0.265
'23:06.192',-0.135,0.650
'23:06.194',-0.100,0.890
'23:06.197',-0.030,0.770
'23:06.200',0.100,0.505
'23:06.203',0.425,0.370
'23:06.206',0.800,0.340
'23:06.208',0.945,0.320
'23:06.211',0.725,0.275
'23:06.214',0.385,0.225
'23:06.217',0.200,0.180
'23:06.219',0.180,0.130
'23:06.222',0.225,0.040
'23:06.225',0.235,-0.095
'23:06.228',0.255,-0.285
'23:06.231',0.255,-0.500
'23:06.233',0.250,-0.750
'23:06.236',0.280,-0.965
'23:06.239',0.290,-1.175
'23:06.242',0.305,-1.420
'23:06.244',0.290,-1.665
'23:06.247',0.270,-1.850
'23:06.250',0.225,-2.015
'23:06.253',0.225,-2.150
'23:06.256',0.230,-2.255
'23:06.258',0.245,-2.335
'23:06.261',0.240,-2.410
'23:06.264',0.220,-2.515
'23:06.267',0.205,-2.620
'23:06.269',0.190,-2.725
'23:06.272',0.175,-2.790
'23:06.275',0.120,-2.835
'23:06.278',0.055,-2.875
'23:06.281',0.005,-2.915
'23:06.283',-0.055,-2.950
'23:06.286',-0.100,-2.970
'23:06.289',-0.170,-2.975
'23:06.292',-0.275,-2.980
'23:06.294',-0.335,-3.005
'23:06.297',-0.365,-3.005
'23:06.300',-0.375,-3.015
'23:06.303',-0.330,-2.990
'23:06.306',-0.300,-2.950
'23:06.308',-0.285,-2.915
'23:06.311',-0.295,-2.845
'23:06.314',-0.330,-2.770
'23:06.317',-0.360,-2.660
'23:06.319',-0.375,-2.535
'23:06.322',-0.375,-2.390
'23:06.325',-0.360,-2.265
'23:06.328',-0.350,-2.125
'23:06.331',-0.340,-1.940
'23:06.333',-0.340,-1.710
'23:06.336',-0.350,-1.485
'23:06.339',-0.350,-1.245
'23:06.342',-0.335,-1.025
'23:06.344',-0.340,-0.800
'23:06.347',-0.340,-0.585
'23:06.350',-0.345,-0.380
'23:06.353',-0.355,-0.190
'23:06.356',-0.365,-0.015
'23:06.358',-0.375,0.135
'23:06.361',-0.395,0.270
'23:06.364',-0.410,0.395
'23:06.367',-0.405,0.495
'23:06.369',-0.395,0.595
'23:06.372',-0.375,0.665
'23:06.375',-0.375,0.710
'23:06.378',-0.375,0.750
'23:06.381',-0.385,0.770
'23:06.383',-0.390,0.800
'23:06.386',-0.375,0.850
'23:06.389',-0.365,0.895
'23:06.392',-0.360,0.925
'23:06.394',-0.365,0.950
'23:06.397',-0.370,0.980
'23:06.400',-0.395,1.005
'23:06.403',-0.385,1.055
'23:06.406',-0.385,1.095
'23:06.408',-0.370,1.130
'23:06.411',-0.375,1.155
'23:06.414',-0.385,1.175
'23:06.417',-0.405,1.205
'23:06.419',-0.400,1.245
'23:06.422',-0.395,1.300
'23:06.425',-0.385,1.335
'23:06.428',-0.385,1.360
'23:06.431',-0.395,1.405
'23:06.433',-0.405,1.435
'23:06.436',-0.405,1.475
'23:06.439',-0.395,1.520
'23:06.442',-0.395,1.560
'23:06.444',-0.400,1.595
'23:06.447',-0.410,1.620
'23:06.450',-0.415,1.660
'23:06.453',-0.420,1.705
'23:06.456',-0.395,1.750
'23:06.458',-0.375,1.780
'23:06.461',-0.385,1.825
'23:06.464',-0.395,1.840
'23:06.467',-0.390,1.870
'23:06.469',-0.380,1.905
'23:06.472',-0.375,1.945
'23:06.475',-0.345,1.965
'23:06.478',-0.355,1.960
'23:06.481',-0.340,1.965
'23:06.483',-0.345,1.970
'23:06.486',-0.330,1.975
'23:06.489',-0.310,1.980
'23:06.492',-0.285,1.975
'23:06.494',-0.290,1.960
'23:06.497',-0.285,1.905
'23:06.500',-0.290,1.890
'23:06.503',-0.265,1.865
'23:06.506',-0.245,1.855
'23:06.508',-0.230,1.805
'23:06.511',-0.230,1.750
'23:06.514',-0.215,1.695
'23:06.517',-0.220,1.645
'23:06.519',-0.200,1.585
'23:06.522',-0.190,1.535
'23:06.525',-0.155,1.475
'23:06.528',-0.160,1.410
'23:06.531',-0.170,1.320
'23:06.533',-0.175,1.275
'23:06.536',-0.160,1.215
'23:06.539',-0.150,1.160
'23:06.542',-0.130,1.095
'23:06.544',-0.150,1.025
'23:06.547',-0.140,0.970
'23:06.550',-0.155,0.900
'23:06.553',-0.160,0.845
'23:06.556',-0.145,0.810
'23:06.558',-0.130,0.740
'23:06.561',-0.130,0.700
'23:06.564',-0.150,0.635
'23:06.567',-0.160,0.590
'23:06.569',-0.155,0.570
'23:06.572',-0.155,0.535
'23:06.575',-0.145,0.500
'23:06.578',-0.145,0.475
'23:06.581',-0.165,0.425
'23:06.583',-0.180,0.385
'23:06.586',-0.170,0.370
'23:06.589',-0.170,0.360
'23:06.592',-0.160,0.335
'23:06.594',-0.170,0.305
'23:06.597',-0.185,0.275
'23:06.600',-0.185,0.270
'23:06.603',-0.195,0.260
'23:06.606',-0.195,0.245
'23:06.608',-0.190,0.230
'23:06.611',-0.190,0.210
'23:06.614',-0.195,0.190
'23:06.617',-0.210,0.180
'23:06.619',-0.205,0.180
'23:06.622',-0.205,0.175
'23:06.625',-0.200,0.175
'23:06.628',-0.205,0.160
'23:06.631',-0.215,0.155
'23:06.633',-0.225,0.155
'23:06.636',-0.215,0.150
'23:06.639',-0.205,0.150
'23:06.642',-0.215,0.145
'23:06.644',-0.200,0.150
'23:06.647',-0.225,0.135
'23:06.650',-0.225,0.130
'23:06.653',-0.220,0.145
'23:06.656',-0.220,0.160
'23:06.658',-0.205,0.160
'23:06.661',-0.200,0.150
'23:06.664',-0.210,0.155
'23:06.667',-0.220,0.165
'23:06.669',-0.210,0.160
'23:06.672',-0.205,0.190
'23:06.675',-0.200,0.190
'23:06.678',-0.200,0.195
'23:06.681',-0.210,0.180
'23:06.683',-0.215,0.170
'23:06.686',-0.220,0.180
'23:06.689',-0.210,0.175
'23:06.692',-0.200,0.170
'23:06.694',-0.190,0.165
'23:06.697',-0.190,0.140
'23:06.700',-0.195,0.140
'23:06.703',-0.195,0.155
'23:06.706',-0.190,0.150
'23:06.708',-0.170,0.135
'23:06.711',-0.175,0.115
'23:06.714',-0.180,0.095
'23:06.717',-0.190,0.090
'23:06.719',-0.200,0.085
'23:06.722',-0.200,0.085
'23:06.725',-0.190,0.075
'23:06.728',-0.190,0.080
'23:06.731',-0.190,0.070
'23:06.733',-0.200,0.070
'23:06.736',-0.215,0.080
'23:06.739',-0.190,0.100
'23:06.742',-0.190,0.105
'23:06.744',-0.195,0.100
'23:06.747',-0.225,0.070
'23:06.750',-0.235,0.080
'23:06.753',-0.255,0.080
'23:06.756',-0.240,0.085
'23:06.758',-0.245,0.085
'23:06.761',-0.245,0.065
'23:06.764',-0.255,0.055
'23:06.767',-0.260,0.045
'23:06.769',-0.260,0.050
'23:06.772',-0.255,0.065
'23:06.775',-0.240,0.055
'23:06.778',-0.245,0.040
'23:06.781',-0.260,0.035
'23:06.783',-0.260,0.025
'23:06.786',-0.275,0.030
'23:06.789',-0.265,0.030
'23:06.792',-0.250,0.025
'23:06.794',-0.260,0.020
'23:06.797',-0.275,0.010
'23:06.800',-0.270,0.005
'23:06.803',-0.275,0.015
'23:06.806',-0.265,0.025
'23:06.808',-0.260,0.005
'23:06.811',-0.265,0.000
'23:06.814',-0.265,-0.005
'23:06.817',-0.295,-0.010
'23:06.819',-0.285,-0.010
'23:06.822',-0.285,-0.005
'23:06.825',-0.285,-0.010
'23:06.828',-0.280,-0.020
'23:06.831',-0.280,-0.025
'23:06.833',-0.280,-0.020
'23:06.836',-0.275,-0.030
'23:06.839',-0.270,-0.020
'23:06.842',-0.270,-0.025
'23:06.844',-0.265,-0.035
'23:06.847',-0.280,-0.045
'23:06.850',-0.290,-0.055
'23:06.853',-0.280,-0.040
'23:06.856',-0.290,-0.035
'23:06.858',-0.275,-0.045
'23:06.861',-0.265,-0.040
'23:06.864',-0.280,-0.045
'23:06.867',-0.295,-0.050
'23:06.869',-0.295,-0.045
'23:06.872',-0.285,-0.030
'23:06.875',-0.270,-0.035
'23:06.878',-0.275,-0.040
'23:06.881',-0.270,-0.060
'23:06.883',-0.280,-0.060
'23:06.886',-0.280,-0.045
'23:06.889',-0.285,-0.035
'23:06.892',-0.265,-0.040
'23:06.894',-0.270,-0.055
'23:06.897',-0.295,-0.055
'23:06.900',-0.300,-0.045
'23:06.903',-0.285,-0.040
'23:06.906',-0.285,-0.045
'23:06.908',-0.275,-0.065
'23:06.911',-0.270,-0.060
'23:06.914',-0.280,-0.060
'23:06.917',-0.295,-0.055
'23:06.919',-0.290,-0.050
'23:06.922',-0.285,-0.045
'23:06.925',-0.270,-0.055
'23:06.928',-0.275,-0.055
'23:06.931',-0.275,-0.070
'23:06.933',-0.295,-0.080
'23:06.936',-0.290,-0.065
'23:06.939',-0.280,-0.060
'23:06.942',-0.265,-0.065
'23:06.944',-0.255,-0.085
'23:06.947',-0.270,-0.085
'23:06.950',-0.285,-0.080
'23:06.953',-0.280,-0.075
'23:06.956',-0.270,-0.055
'23:06.958',-0.265,-0.065
'23:06.961',-0.255,-0.065
'23:06.964',-0.265,-0.065
'23:06.967',-0.280,-0.080
'23:06.969',-0.265,-0.070
'23:06.972',-0.265,-0.050
'23:06.975',-0.245,-0.040
'23:06.978',-0.235,-0.035
'23:06.981',-0.240,0.030
'23:06.983',-0.240,0.210
'23:06.986',-0.210,0.550
'23:06.989',-0.175,0.830
'23:06.992',-0.145,0.780
'23:06.994',-0.060,0.535
'23:06.997',0.140,0.375
'23:07.000',0.480,0.310
'23:07.003',0.760,0.295
'23:07.006',0.690,0.270
'23:07.008',0.395,0.240
'23:07.011',0.185,0.190
'23:07.014',0.125,0.125
'23:07.017',0.150,0.005
'23:07.019',0.185,-0.125
'23:07.022',0.195,-0.300
'23:07.025',0.200,-0.520
'23:07.028',0.215,-0.775
'23:07.031',0.210,-1.050
'23:07.033',0.200,-1.290
'23:07.036',0.210,-1.545
'23:07.039',0.220,-1.795
'23:07.042',0.210,-1.995
'23:07.044',0.190,-2.160
'23:07.047',0.170,-2.305
'23:07.050',0.165,-2.415
'23:07.053',0.175,-2.480
'23:07.056',0.190,-2.540
'23:07.058',0.190,-2.615
'23:07.061',0.180,-2.695
'23:07.064',0.165,-2.805
'23:07.067',0.130,-2.880
'23:07.069',0.090,-2.915
'23:07.072',0.055,-2.925
'23:07.075',0.005,-2.945
'23:07.078',-0.045,-2.980
'23:07.081',-0.095,-3.010
'23:07.083',-0.170,-3.035
'23:07.086',-0.260,-3.035
'23:07.089',-0.330,-3.035
'23:07.092',-0.350,-3.040
'23:07.094',-0.345,-3.020
'23:07.097',-0.310,-3.020
'23:07.100',-0.290,-3.005
'23:07.103',-0.285,-2.975
'23:07.106',-0.270,-2.910
'23:07.108',-0.280,-2.845
'23:07.111',-0.315,-2.755
'23:07.114',-0.350,-2.650
'23:07.117',-0.390,-2.530
'23:07.119',-0.410,-2.395
'23:07.122',-0.385,-2.225
'23:07.125',-0.370,-2.055
'23:07.128',-0.370,-1.845
'23:07.131',-0.375,-1.605
'23:07.133',-0.390,-1.370
'23:07.136',-0.390,-1.125
'23:07.139',-0.380,-0.910
'23:07.142',-0.355,-0.685
'23:07.144',-0.350,-0.470
'23:07.147',-0.370,-0.270
'23:07.150',-0.385,-0.110
'23:07.153',-0.395,0.060
'23:07.156',-0.400,0.210
'23:07.158',-0.400,0.330
'23:07.161',-0.420,0.460
'23:07.164',-0.415,0.580
'23:07.167',-0.410,0.665
'23:07.169',-0.400,0.735
'23:07.172',-0.385,0.790
'23:07.175',-0.380,0.830
'23:07.178',-0.380,0.860
'23:07.181',-0.375,0.890
'23:07.183',-0.385,0.920
'23:07.186',-0.395,0.965
'23:07.189',-0.375,1.005
'23:07.192',-0.370,1.045
'23:07.194',-0.360,1.070
'23:07.197',-0.380,1.080
'23:07.200',-0.390,1.120
'23:07.203',-0.370,1.165
'23:07.206',-0.370,1.200
'23:07.208',-0.370,1.245
'23:07.211',-0.375,1.275
'23:07.214',-0.370,1.300
'23:07.217',-0.375,1.335
'23:07.219',-0.390,1.375
'23:07.222',-0.390,1.430
'23:07.225',-0.370,1.465
'23:07.228',-0.385,1.505
'23:07.231',-0.380,1.535
'23:07.233',-0.395,1.575
'23:07.236',-0.395,1.620
'23:07.239',-0.375,1.675
'23:07.242',-0.370,1.705
'23:07.244',-0.370,1.740
'23:07.247',-0.380,1.775
'23:07.250',-0.390,1.805
'23:07.253',-0.380,1.860
'23:07.256',-0.355,1.885
'23:07.258',-0.355,1.925
'23:07.261',-0.355,1.955
'23:07.264',-0.360,1.975
'23:07.267',-0.365,1.995
'23:07.269',-0.350,2.035
'23:07.272',-0.340,2.060
'23:07.275',-0.315,2.075
'23:07.278',-0.315,2.070
'23:07.281',-0.310,2.065
'23:07.283',-0.310,2.070
'23:07.286',-0.310,2.065
'23:07.289',-0.265,2.065
'23:07.292',-0.250,2.045
'23:07.294',-0.245,2.020
'23:07.297',-0.240,1.970
'23:07.300',-0.245,1.935
'23:07.303',-0.235,1.895
'23:07.306',-0.215,1.860
'23:07.308',-0.190,1.810
'23:07.311',-0.190,1.750
'23:07.314',-0.195,1.685
'23:07.317',-0.195,1.615
'23:07.319',-0.180,1.560
'23:07.322',-0.160,1.505
'23:07.325',-0.160,1.445
'23:07.328',-0.165,1.380
'23:07.331',-0.150,1.285
'23:07.333',-0.165,1.215
'23:07.336',-0.160,1.160
'23:07.339',-0.135,1.105
'23:07.342',-0.125,1.040
'23:07.344',-0.130,0.965
'23:07.347',-0.135,0.890
'23:07.350',-0.145,0.820
'23:07.353',-0.145,0.770
'23:07.356',-0.135,0.750
'23:07.358',-0.140,0.700
'23:07.361',-0.145,0.650
'23:07.364',-0.160,0.590
'23:07.367',-0.170,0.540
'23:07.369',-0.175,0.500
'23:07.372',-0.175,0.485
'23:07.375',-0.175,0.445
'23:07.378',-0.160,0.410
'23:07.381',-0.175,0.375
'23:07.383',-0.190,0.350
'23:07.386',-0.200,0.320
'23:07.389',-0.190,0.325
'23:07.392',-0.185,0.300
'23:07.394',-0.190,0.275
'23:07.397',-0.205,0.250
'23:07.400',-0.215,0.235
'23:07.403',-0.210,0.225
'23:07.406',-0.200,0.220
'23:07.408',-0.200,0.205
'23:07.411',-0.210,0.195
'23:07.414',-0.210,0.175
'23:07.417',-0.225,0.165
'23:07.419',-0.225,0.175
'23:07.422',-0.220,0.165
'23:07.425',-0.215,0.155
'23:07.428',-0.220,0.140
'23:07.431',-0.230,0.135
'23:07.433',-0.240,0.135
'23:07.436',-0.245,0.130
'23:07.439',-0.225,0.140
'23:07.442',-0.230,0.130
'23:07.444',-0.240,0.125
'23:07.447',-0.240,0.110
'23:07.450',-0.245,0.115
'23:07.453',-0.240,0.115
'23:07.456',-0.225,0.120
'23:07.458',-0.225,0.125
'23:07.461',-0.225,0.130
'23:07.464',-0.225,0.100
'23:07.467',-0.240,0.090
'23:07.469',-0.240,0.100
'23:07.472',-0.240,0.115
'23:07.475',-0.235,0.120
'23:07.478',-0.235,0.100
'23:07.481',-0.245,0.105
'23:07.483',-0.245,0.095
'23:07.486',-0.245,0.115
'23:07.489',-0.225,0.125
'23:07.492',-0.225,0.115
'23:07.494',-0.230,0.115
'23:07.497',-0.235,0.115
'23:07.500',-0.245,0.100
'23:07.503',-0.245,0.120
'23:07.506',-0.235,0.120
'23:07.508',-0.225,0.110
'23:07.511',-0.220,0.115
'23:07.514',-0.225,0.110
'23:07.517',-0.240,0.095
'23:07.519',-0.235,0.100
'23:07.522',-0.230,0.105
'23:07.525',-0.240,0.110
'23:07.528',-0.245,0.110
'23:07.531',-0.255,0.090
'23:07.533',-0.270,0.100
'23:07.536',-0.260,0.090
'23:07.539',-0.250,0.110
'23:07.542',-0.240,0.080
'23:07.544',-0.230,0.090
'23:07.547',-0.250,0.070
'23:07.550',-0.270,0.070
'23:07.553',-0.270,0.075
'23:07.556',-0.265,0.075
'23:07.558',-0.265,0.070
'23:07.561',-0.265,0.055
'23:07.564',-0.270,0.045
'23:07.567',-0.275,0.030
'23:07.569',-0.260,0.045
'23:07.572',-0.260,0.050
'23:07.575',-0.245,0.040
'23:07.578',-0.255,0.030
'23:07.581',-0.275,0.020
'23:07.583',-0.285,0.015
'23:07.586',-0.290,0.010
'23:07.589',-0.265,0.020
'23:07.592',-0.255,0.025
'23:07.594',-0.260,0.020
'23:07.597',-0.275,0.015
'23:07.600',-0.290,0.025
'23:07.603',-0.290,0.035
'23:07.606',-0.275,0.045
'23:07.608',-0.280,0.040
'23:07.611',-0.285,0.040
'23:07.614',-0.300,0.045
'23:07.617',-0.290,0.030
'23:07.619',-0.290,0.025
'23:07.622',-0.275,0.040
'23:07.625',-0.275,0.045
'23:07.628',-0.270,0.030
'23:07.631',-0.280,0.015
'23:07.633',-0.285,-0.005
'23:07.636',-0.270,0.005
'23:07.639',-0.260,0.010
'23:07.642',-0.250,-0.005
'23:07.644',-0.250,-0.015
'23:07.647',-0.265,-0.040
'23:07.650',-0.270,-0.040
'23:07.653',-0.255,-0.045
'23:07.656',-0.225,-0.050
'23:07.658',-0.220,-0.060
'23:07.661',-0.220,-0.070
'23:07.664',-0.225,-0.095
'23:07.667',-0.245,-0.110
'23:07.669',-0.255,-0.100
'23:07.672',-0.245,-0.110
'23:07.675',-0.245,-0.105
'23:07.678',-0.235,-0.120
'23:07.681',-0.240,-0.130
'23:07.683',-0.240,-0.130
'23:07.686',-0.240,-0.100
'23:07.689',-0.235,-0.095
'23:07.692',-0.240,-0.080
'23:07.694',-0.255,-0.100
'23:07.697',-0.280,-0.115
'23:07.700',-0.290,-0.105
'23:07.703',-0.290,-0.110
'23:07.706',-0.275,-0.105
'23:07.708',-0.265,-0.095
'23:07.711',-0.260,-0.100
'23:07.714',-0.270,-0.120
'23:07.717',-0.280,-0.125
'23:07.719',-0.280,-0.095
'23:07.722',-0.265,-0.100
'23:07.725',-0.235,-0.090
'23:07.728',-0.245,-0.120
'23:07.731',-0.260,-0.110
'23:07.733',-0.270,-0.125
'23:07.736',-0.270,-0.115
'23:07.739',-0.270,-0.100
'23:07.742',-0.265,-0.105
'23:07.744',-0.265,-0.110
'23:07.747',-0.285,-0.110
'23:07.750',-0.290,-0.130
'23:07.753',-0.280,-0.120
'23:07.756',-0.270,-0.100
'23:07.758',-0.270,-0.100
'23:07.761',-0.280,-0.105
'23:07.764',-0.250,-0.110
'23:07.767',-0.255,-0.115
'23:07.769',-0.240,-0.085
'23:07.772',-0.235,-0.055
'23:07.775',-0.225,-0.005
'23:07.778',-0.210,0.125
'23:07.781',-0.210,0.425
'23:07.783',-0.180,0.815
'23:07.786',-0.130,0.960
'23:07.789',-0.050,0.790
'23:07.792',0.100,0.520
'23:07.794',0.405,0.365
'23:07.797',0.755,0.315
'23:07.800',0.885,0.285
'23:07.803',0.710,0.250
'23:07.806',0.400,0.240
'23:07.808',0.220,0.215
'23:07.811',0.175,0.185
'23:07.814',0.170,0.100
'23:07.817',0.170,0.000
'23:07.819',0.205,-0.140
'23:07.822',0.230,-0.280
'23:07.825',0.265,-0.485
'23:07.828',0.290,-0.705
'23:07.831',0.310,-0.940
'23:07.833',0.325,-1.180
'23:07.836',0.330,-1.420
'23:07.839',0.340,-1.645
'23:07.842',0.345,-1.830
'23:07.844',0.345,-1.995
'23:07.847',0.370,-2.145
'23:07.850',0.390,-2.260
'23:07.853',0.415,-2.345
'23:07.856',0.420,-2.420
'23:07.858',0.415,-2.530
'23:07.861',0.415,-2.650
'23:07.864',0.395,-2.755
'23:07.867',0.370,-2.830
'23:07.869',0.320,-2.865
'23:07.872',0.275,-2.895
'23:07.875',0.230,-2.925
'23:07.878',0.175,-2.975
'23:07.881',0.105,-3.005
'23:07.883',0.020,-3.030
'23:07.886',-0.080,-3.030
'23:07.889',-0.150,-3.030
'23:07.892',-0.165,-3.030
'23:07.894',-0.175,-3.030
'23:07.897',-0.165,-3.025
'23:07.900',-0.175,-3.010
'23:07.903',-0.185,-2.975
'23:07.906',-0.210,-2.915
'23:07.908',-0.220,-2.825
'23:07.911',-0.255,-2.730
'23:07.914',-0.315,-2.645
'23:07.917',-0.360,-2.500
'23:07.919',-0.390,-2.355
'23:07.922',-0.395,-2.195
'23:07.925',-0.375,-2.020
'23:07.928',-0.370,-1.800
'23:07.931',-0.375,-1.570
'23:07.933',-0.385,-1.360
'23:07.936',-0.375,-1.120
'23:07.939',-0.370,-0.890
'23:07.942',-0.340,-0.695
'23:07.944',-0.345,-0.490
'23:07.947',-0.345,-0.295
'23:07.950',-0.355,-0.125
'23:07.953',-0.365,0.045
'23:07.956',-0.360,0.195
'23:07.958',-0.380,0.310
'23:07.961',-0.400,0.430
'23:07.964',-0.405,0.535
'23:07.967',-0.395,0.635
'23:07.969',-0.370,0.725
'23:07.972',-0.350,0.785
'23:07.975',-0.340,0.830
'23:07.978',-0.345,0.870
'23:07.981',-0.355,0.895
'23:07.983',-0.365,0.935
'23:07.986',-0.355,0.980
'23:07.989',-0.345,1.025
'23:07.992',-0.330,1.040
'23:07.994',-0.350,1.080
'23:07.997',-0.365,1.095
'23:08.000',-0.350,1.140
'23:08.003',-0.335,1.165
'23:08.006',-0.325,1.205
'23:08.008',-0.330,1.235
'23:08.011',-0.345,1.265
'23:08.014',-0.375,1.295
'23:08.017',-0.380,1.330
'23:08.019',-0.350,1.365
'23:08.022',-0.350,1.405
'23:08.025',-0.330,1.435
'23:08.028',-0.335,1.475
'23:08.031',-0.330,1.515
'23:08.033',-0.350,1.525
'23:08.036',-0.360,1.570
'23:08.039',-0.360,1.625
'23:08.042',-0.345,1.660
'23:08.044',-0.325,1.690
'23:08.047',-0.335,1.715
'23:08.050',-0.340,1.760
'23:08.053',-0.335,1.795
'23:08.056',-0.330,1.840
'23:08.058',-0.335,1.865
'23:08.061',-0.340,1.890
'23:08.064',-0.340,1.915
'23:08.067',-0.340,1.940
'23:08.069',-0.325,1.980
'23:08.072',-0.305,2.005
'23:08.075',-0.295,2.025
'23:08.078',-0.275,2.035
'23:08.081',-0.290,2.030
'23:08.083',-0.285,2.040
'23:08.086',-0.265,2.055
'23:08.089',-0.250,2.075
'23:08.092',-0.230,2.075
'23:08.094',-0.230,2.055
'23:08.097',-0.230,2.025
'23:08.100',-0.240,2.005
'23:08.103',-0.230,1.990
'23:08.106',-0.230,1.980
'23:08.108',-0.205,1.935
'23:08.111',-0.205,1.890
'23:08.114',-0.210,1.840
'23:08.117',-0.210,1.790
'23:08.119',-0.200,1.745
'23:08.122',-0.175,1.705
'23:08.125',-0.145,1.640
'23:08.128',-0.125,1.580
'23:08.131',-0.125,1.510
'23:08.133',-0.140,1.450
'23:08.136',-0.130,1.395
'23:08.139',-0.115,1.335
'23:08.142',-0.110,1.275
'23:08.144',-0.110,1.215
'23:08.147',-0.125,1.130
'23:08.150',-0.135,1.080
'23:08.153',-0.125,1.015
'23:08.156',-0.115,0.970
'23:08.158',-0.105,0.910
'23:08.161',-0.105,0.845
'23:08.164',-0.115,0.790
'23:08.167',-0.120,0.735
'23:08.169',-0.125,0.690
'23:08.172',-0.140,0.660
'23:08.175',-0.155,0.625
'23:08.178',-0.160,0.565
'23:08.181',-0.170,0.510
'23:08.183',-0.165,0.470
'23:08.186',-0.140,0.440
'23:08.189',-0.135,0.420
'23:08.192',-0.115,0.390
'23:08.194',-0.140,0.365
'23:08.197',-0.160,0.325
'23:08.200',-0.165,0.300
'23:08.203',-0.175,0.285
'23:08.206',-0.170,0.285
'23:08.208',-0.160,0.255
'23:08.211',-0.155,0.220
'23:08.214',-0.180,0.205
'23:08.217',-0.205,0.200
'23:08.219',-0.200,0.185
'23:08.222',-0.210,0.190
'23:08.225',-0.220,0.175
'23:08.228',-0.240,0.145
'23:08.231',-0.240,0.145
'23:08.233',-0.220,0.130
'23:08.236',-0.195,0.120
'23:08.239',-0.160,0.130
'23:08.242',-0.150,0.125
'23:08.244',-0.165,0.120
'23:08.247',-0.200,0.095
'23:08.250',-0.210,0.085
'23:08.253',-0.205,0.095
'23:08.256',-0.180,0.095
'23:08.258',-0.170,0.095
'23:08.261',-0.180,0.075
'23:08.264',-0.195,0.065
'23:08.267',-0.210,0.055
'23:08.269',-0.215,0.060
'23:08.272',-0.210,0.080
'23:08.275',-0.205,0.070
'23:08.278',-0.200,0.070
'23:08.281',-0.210,0.050
'23:08.283',-0.220,0.045
'23:08.286',-0.200,0.055
'23:08.289',-0.190,0.070
'23:08.292',-0.175,0.060
'23:08.294',-0.185,0.060
'23:08.297',-0.220,0.050
'23:08.300',-0.230,0.045
'23:08.303',-0.230,0.055
'23:08.306',-0.200,0.065
'23:08.308',-0.200,0.065
'23:08.311',-0.200,0.065
'23:08.314',-0.210,0.055
'23:08.317',-0.235,0.060
'23:08.319',-0.245,0.060
'23:08.322',-0.245,0.075
'23:08.325',-0.230,0.080
'23:08.328',-0.220,0.075
'23:08.331',-0.225,0.065
'23:08.333',-0.200,0.075
'23:08.336',-0.200,0.070
'23:08.339',-0.180,0.080
'23:08.342',-0.175,0.085
'23:08.344',-0.175,0.075
'23:08.347',-0.190,0.065
'23:08.350',-0.185,0.070
'23:08.353',-0.190,0.070
'23:08.356',-0.185,0.080
'23:08.358',-0.205,0.075
'23:08.361',-0.215,0.070
'23:08.364',-0.230,0.070
'23:08.367',-0.245,0.075
'23:08.369',-0.230,0.085
'23:08.372',-0.200,0.085
'23:08.375',-0.205,0.070
'23:08.378',-0.205,0.065
'23:08.381',-0.210,0.055
'23:08.383',-0.225,0.045
'23:08.386',-0.225,0.050
'23:08.389',-0.225,0.065
'23:08.392',-0.220,0.045
'23:08.394',-0.230,0.045
'23:08.397',-0.225,0.030
'23:08.400',-0.230,0.040
'23:08.403',-0.225,0.040
'23:08.406',-0.220,0.035
'23:08.408',-0.220,0.030
'23:08.411',-0.225,0.025
'23:08.414',-0.215,0.010
'23:08.417',-0.225,0.005
'23:08.419',-0.225,0.020
'23:08.422',-0.210,0.010
'23:08.425',-0.215,-0.005
'23:08.428',-0.215,-0.005
'23:08.431',-0.230,-0.020
'23:08.433',-0.240,-0.025
'23:08.436',-0.245,-0.025
'23:08.439',-0.230,-0.015
'23:08.442',-0.230,-0.025
'23:08.444',-0.230,-0.030
'23:08.447',-0.240,-0.040
'23:08.450',-0.255,-0.045
'23:08.453',-0.240,-0.050
'23:08.456',-0.240,-0.025
'23:08.458',-0.230,-0.035
'23:08.461',-0.230,-0.040
'23:08.464',-0.240,-0.050
'23:08.467',-0.245,-0.060
'23:08.469',-0.245,-0.055
'23:08.472',-0.250,-0.045
'23:08.475',-0.235,-0.060
'23:08.478',-0.240,-0.065
'23:08.481',-0.245,-0.075
'23:08.483',-0.255,-0.075
'23:08.486',-0.255,-0.065
'23:08.489',-0.255,-0.060
'23:08.492',-0.240,-0.075
'23:08.494',-0.245,-0.080
'23:08.497',-0.240,-0.085
'23:08.500',-0.250,-0.085
'23:08.503',-0.250,-0.090
'23:08.506',-0.250,-0.075
'23:08.508',-0.240,-0.085
'23:08.511',-0.245,-0.095
'23:08.514',-0.245,-0.090
'23:08.517',-0.255,-0.095
'23:08.519',-0.250,-0.085
'23:08.522',-0.240,-0.070
'23:08.525',-0.235,-0.085
'23:08.528',-0.235,-0.090
'23:08.531',-0.240,-0.095
'23:08.533',-0.265,-0.090
'23:08.536',-0.255,-0.080
'23:08.539',-0.245,-0.075
'23:08.542',-0.245,-0.070
'23:08.544',-0.240,-0.070
'23:08.547',-0.250,-0.075
'23:08.550',-0.265,-0.075
'23:08.553',-0.260,-0.055
'23:08.556',-0.255,-0.050
'23:08.558',-0.255,-0.045
'23:08.561',-0.265,-0.045
'23:08.564',-0.265,-0.060
'23:08.567',-0.270,-0.065
'23:08.569',-0.265,-0.055
'23:08.572',-0.260,-0.050
'23:08.575',-0.260,-0.045
'23:08.578',-0.260,-0.055
'23:08.581',-0.275,-0.060
'23:08.583',-0.275,-0.060
'23:08.586',-0.255,-0.055
'23:08.589',-0.240,-0.050
'23:08.592',-0.220,-0.065
'23:08.594',-0.230,-0.085
'23:08.597',-0.245,-0.105
'23:08.600',-0.235,-0.110
'23:08.603',-0.230,-0.095
'23:08.606',-0.220,-0.100
'23:08.608',-0.215,-0.105
'23:08.611',-0.195,-0.120
'23:08.614',-0.205,-0.135
'23:08.617',-0.220,-0.130
'23:08.619',-0.210,-0.125
'23:08.622',-0.195,-0.125
'23:08.625',-0.195,-0.110
'23:08.628',-0.195,-0.100
'23:08.631',-0.195,-0.035
'23:08.633',-0.190,0.150
'23:08.636',-0.170,0.520
'23:08.639',-0.130,0.860
'23:08.642',-0.100,0.945
'23:08.644',-0.055,0.735
'23:08.647',0.040,0.495
'23:08.650',0.275,0.370
'23:08.653',0.640,0.315
'23:08.656',0.860,0.300
'23:08.658',0.765,0.230
'23:08.661',0.470,0.175
'23:08.664',0.230,0.095
'23:08.667',0.145,-0.010
'23:08.669',0.155,-0.125
'23:08.672',0.185,-0.245
'23:08.675',0.210,-0.410
'23:08.678',0.210,-0.590
'23:08.681',0.200,-0.810
'23:08.683',0.180,-1.015
'23:08.686',0.205,-1.175
'23:08.689',0.230,-1.295
'23:08.692',0.230,-1.430
'23:08.694',0.240,-1.570
'23:08.697',0.210,-1.730
'23:08.700',0.190,-1.915
'23:08.703',0.210,-2.095
'23:08.706',0.240,-2.240
'23:08.708',0.245,-2.370
'23:08.711',0.245,-2.475
'23:08.714',0.210,-2.575
'23:08.717',0.165,-2.665
'23:08.719',0.145,-2.740
'23:08.722',0.110,-2.795
'23:08.725',0.080,-2.835
'23:08.728',0.035,-2.895
'23:08.731',-0.010,-2.935
'23:08.733',-0.070,-2.980
'23:08.736',-0.125,-2.995
'23:08.739',-0.210,-3.000
'23:08.742',-0.300,-2.995
'23:08.744',-0.380,-3.010
'23:08.747',-0.465,-3.020
'23:08.750',-0.475,-3.025
'23:08.753',-0.450,-3.010
'23:08.756',-0.405,-2.985
'23:08.758',-0.380,-2.955
'23:08.761',-0.395,-2.900
'23:08.764',-0.410,-2.845
'23:08.767',-0.425,-2.725
'23:08.769',-0.440,-2.600
'23:08.772',-0.435,-2.460
'23:08.775',-0.435,-2.305
'23:08.778',-0.440,-2.125
'23:08.781',-0.435,-1.960
'23:08.783',-0.430,-1.760
'23:08.786',-0.400,-1.540
'23:08.789',-0.360,-1.310
'23:08.792',-0.325,-1.085
'23:08.794',-0.330,-0.875
'23:08.797',-0.365,-0.680
'23:08.800',-0.400,-0.485
'23:08.803',-0.400,-0.270
'23:08.806',-0.400,-0.085
'23:08.808',-0.400,0.070
'23:08.811',-0.410,0.220
'23:08.814',-0.420,0.325
'23:08.817',-0.430,0.440
'23:08.819',-0.435,0.540
'23:08.822',-0.425,0.605
'23:08.825',-0.405,0.670
'23:08.828',-0.400,0.710
'23:08.831',-0.410,0.735
'23:08.833',-0.420,0.775
'23:08.836',-0.405,0.810
'23:08.839',-0.410,0.855
'23:08.842',-0.395,0.870
'23:08.844',-0.400,0.910
'23:08.847',-0.405,0.920
'23:08.850',-0.415,0.945
'23:08.853',-0.410,0.980
'23:08.856',-0.400,1.030
'23:08.858',-0.390,1.030
'23:08.861',-0.395,1.065
'23:08.864',-0.395,1.090
'23:08.867',-0.405,1.105
'23:08.869',-0.405,1.140
'23:08.872',-0.395,1.175
'23:08.875',-0.395,1.205
'23:08.878',-0.395,1.245
'23:08.881',-0.400,1.255
'23:08.883',-0.405,1.275
'23:08.886',-0.405,1.320
'23:08.889',-0.395,1.350
'23:08.892',-0.385,1.385
'23:08.894',-0.390,1.415
'23:08.897',-0.400,1.420
'23:08.900',-0.420,1.450
'23:08.903',-0.400,1.495
'23:08.906',-0.385,1.535
'23:08.908',-0.385,1.570
'23:08.911',-0.385,1.600
'23:08.914',-0.390,1.615
'23:08.917',-0.405,1.645
'23:08.919',-0.400,1.690
'23:08.922',-0.380,1.715
'23:08.925',-0.360,1.745
'23:08.928',-0.360,1.760
'23:08.931',-0.370,1.795
'23:08.933',-0.375,1.800
'23:08.936',-0.350,1.820
'23:08.939',-0.345,1.855
'23:08.942',-0.325,1.850
'23:08.944',-0.320,1.865
'23:08.947',-0.320,1.860
'23:08.950',-0.330,1.835
'23:08.953',-0.325,1.850
'23:08.956',-0.290,1.855
'23:08.958',-0.285,1.835
'23:08.961',-0.275,1.815
'23:08.964',-0.265,1.790
'23:08.967',-0.270,1.765
'23:08.969',-0.265,1.720
'23:08.972',-0.255,1.705
'23:08.975',-0.225,1.665
'23:08.978',-0.225,1.620
'23:08.981',-0.235,1.570
'23:08.983',-0.240,1.515
'23:08.986',-0.225,1.475
'23:08.989',-0.215,1.425
'23:08.992',-0.210,1.370
'23:08.994',-0.210,1.310
'23:08.997',-0.210,1.250
'23:09.000',-0.195,1.175
'23:09.003',-0.205,1.110
'23:09.006',-0.190,1.080
'23:09.008',-0.185,1.015
'23:09.011',-0.200,0.960
'23:09.014',-0.200,0.885
'23:09.017',-0.215,0.825
'23:09.019',-0.205,0.790
'23:09.022',-0.200,0.755
'23:09.025',-0.195,0.705
'23:09.028',-0.205,0.650
'23:09.031',-0.215,0.595
'23:09.033',-0.230,0.560
'23:09.036',-0.235,0.510
'23:09.039',-0.225,0.495
'23:09.042',-0.225,0.460
'23:09.044',-0.235,0.415
'23:09.047',-0.230,0.380
'23:09.050',-0.255,0.340
'23:09.053',-0.240,0.330
'23:09.056',-0.240,0.300
'23:09.058',-0.240,0.280
'23:09.061',-0.230,0.255
'23:09.064',-0.250,0.230
'23:09.067',-0.265,0.215
'23:09.069',-0.260,0.205
'23:09.072',-0.260,0.200
'23:09.075',-0.255,0.185
'23:09.078',-0.260,0.175
'23:09.081',-0.265,0.145
'23:09.083',-0.275,0.140
'23:09.086',-0.275,0.135
'23:09.089',-0.260,0.130
'23:09.092',-0.270,0.125
'23:09.094',-0.265,0.120
'23:09.097',-0.270,0.100
'23:09.100',-0.285,0.090
'23:09.103',-0.290,0.090
'23:09.106',-0.275,0.100
'23:09.108',-0.255,0.095
'23:09.111',-0.275,0.080
'23:09.114',-0.280,0.075
'23:09.117',-0.285,0.075
'23:09.119',-0.290,0.080
'23:09.122',-0.290,0.085
'23:09.125',-0.270,0.080
'23:09.128',-0.275,0.070
'23:09.131',-0.285,0.055
'23:09.133',-0.290,0.050
'23:09.136',-0.295,0.065
'23:09.139',-0.275,0.075
'23:09.142',-0.270,0.065
'23:09.144',-0.270,0.070
'23:09.147',-0.275,0.055
'23:09.150',-0.290,0.055
'23:09.153',-0.280,0.060
'23:09.156',-0.275,0.070
'23:09.158',-0.265,0.075
'23:09.161',-0.270,0.065
'23:09.164',-0.275,0.060
'23:09.167',-0.295,0.055
'23:09.169',-0.295,0.070
'23:09.172',-0.280,0.085
'23:09.175',-0.270,0.080
'23:09.178',-0.270,0.075
'23:09.181',-0.275,0.060
'23:09.183',-0.290,0.060
'23:09.186',-0.285,0.070
'23:09.189',-0.275,0.085
'23:09.192',-0.270,0.085
'23:09.194',-0.270,0.075
'23:09.197',-0.275,0.070
'23:09.200',-0.290,0.075
'23:09.203',-0.290,0.080
'23:09.206',-0.285,0.085
'23:09.208',-0.275,0.075
'23:09.211',-0.275,0.075
'23:09.214',-0.290,0.055
'23:09.217',-0.300,0.055
'23:09.219',-0.295,0.070
'23:09.222',-0.285,0.080
'23:09.225',-0.285,0.075
'23:09.228',-0.290,0.060
'23:09.231',-0.290,0.045
'23:09.233',-0.300,0.035
'23:09.236',-0.295,0.045
'23:09.239',-0.290,0.050
'23:09.242',-0.290,0.055
'23:09.244',-0.295,0.040
'23:09.247',-0.305,0.035
'23:09.250',-0.325,0.020
'23:09.253',-0.310,0.020
'23:09.256',-0.305,0.030
'23:09.258',-0.300,0.030
'23:09.261',-0.310,0.025
'23:09.264',-0.305,0.000
'23:09.267',-0.315,-0.005
'23:09.269',-0.320,0.005
'23:09.272',-0.310,0.010
'23:09.275',-0.305,0.010
'23:09.278',-0.305,-0.010
'23:09.281',-0.325,-0.020
'23:09.283',-0.330,-0.020
'23:09.286',-0.335,-0.015
'23:09.289',-0.310,-0.005
'23:09.292',-0.305,-0.025
'23:09.294',-0.305,-0.035
'23:09.297',-0.320,-0.040
'23:09.300',-0.325,-0.050
'23:09.303',-0.325,-0.035
'23:09.306',-0.315,-0.030
'23:09.308',-0.315,-0.040
'23:09.311',-0.320,-0.045
'23:09.314',-0.340,-0.055
'23:09.317',-0.340,-0.070
'23:09.319',-0.325,-0.060
'23:09.322',-0.330,-0.045
'23:09.325',-0.320,-0.055
'23:09.328',-0.315,-0.060
'23:09.331',-0.330,-0.070
'23:09.333',-0.360,-0.085
'23:09.336',-0.345,-0.075
'23:09.339',-0.335,-0.065
'23:09.342',-0.330,-0.085
'23:09.344',-0.345,-0.080
'23:09.347',-0.335,-0.090
'23:09.350',-0.355,-0.085
'23:09.353',-0.350,-0.090
'23:09.356',-0.340,-0.075
'23:09.358',-0.330,-0.085
'23:09.361',-0.325,-0.085
'23:09.364',-0.345,-0.095
'23:09.367',-0.355,-0.095
'23:09.369',-0.370,-0.100
'23:09.372',-0.355,-0.080
'23:09.375',-0.340,-0.090
'23:09.378',-0.335,-0.085
'23:09.381',-0.355,-0.105
'23:09.383',-0.355,-0.100
'23:09.386',-0.350,-0.100
'23:09.389',-0.340,-0.085
'23:09.392',-0.345,-0.090
'23:09.394',-0.345,-0.100
'23:09.397',-0.355,-0.105
'23:09.400',-0.365,-0.115
'23:09.403',-0.355,-0.105
'23:09.406',-0.340,-0.095
'23:09.408',-0.340,-0.105
'23:09.411',-0.340,-0.105
'23:09.414',-0.355,-0.115
'23:09.417',-0.360,-0.115
'23:09.419',-0.365,-0.110
'23:09.422',-0.335,-0.100
'23:09.425',-0.340,-0.110
'23:09.428',-0.335,-0.110
'23:09.431',-0.350,-0.115
'23:09.433',-0.355,-0.125
'23:09.436',-0.350,-0.125
'23:09.439',-0.340,-0.115
'23:09.442',-0.325,-0.115
'23:09.444',-0.320,-0.125
'23:09.447',-0.325,-0.125
'23:09.450',-0.335,-0.145
'23:09.453',-0.340,-0.135
'23:09.456',-0.320,-0.110
'23:09.458',-0.320,-0.110
'23:09.461',-0.315,-0.120
'23:09.464',-0.315,-0.145
'23:09.467',-0.330,-0.130
'23:09.469',-0.315,-0.120
'23:09.472',-0.320,-0.120
'23:09.475',-0.300,-0.115
'23:09.478',-0.310,-0.115
'23:09.481',-0.315,-0.115
'23:09.483',-0.315,-0.105
'23:09.486',-0.300,-0.080
'23:09.489',-0.290,0.010
'23:09.492',-0.260,0.230
'23:09.494',-0.245,0.580
'23:09.497',-0.230,0.800
'23:09.500',-0.195,0.700
'23:09.503',-0.110,0.490
'23:09.506',0.100,0.375
'23:09.508',0.465,0.310
'23:09.511',0.745,0.275
'23:09.514',0.730,0.210
'23:09.517',0.460,0.160
'23:09.519',0.215,0.095
'23:09.522',0.115,0.020
'23:09.525',0.130,-0.115
'23:09.528',0.145,-0.285
'23:09.531',0.140,-0.470
'23:09.533',0.120,-0.690
'23:09.536',0.115,-0.890
'23:09.539',0.135,-1.080
'23:09.542',0.140,-1.260
'23:09.544',0.135,-1.415
'23:09.547',0.135,-1.580
'23:09.550',0.115,-1.730
'23:09.553',0.090,-1.850
'23:09.556',0.105,-2.030
'23:09.558',0.120,-2.230
'23:09.561',0.140,-2.405
'23:09.564',0.130,-2.545
'23:09.567',0.110,-2.655
'23:09.569',0.095,-2.740
'23:09.572',0.065,-2.815
'23:09.575',0.050,-2.895
'23:09.578',0.005,-2.975
'23:09.581',-0.045,-3.020
'23:09.583',-0.110,-3.055
'23:09.586',-0.180,-3.065
'23:09.589',-0.205,-3.080
'23:09.592',-0.260,-3.090
'23:09.594',-0.340,-3.090
'23:09.597',-0.435,-3.115
'23:09.600',-0.525,-3.115
'23:09.603',-0.555,-3.100
'23:09.606',-0.565,-3.080
'23:09.608',-0.515,-3.065
'23:09.611',-0.465,-3.065
'23:09.614',-0.425,-3.035
'23:09.617',-0.415,-2.980
'23:09.619',-0.415,-2.880
'23:09.622',-0.415,-2.760
'23:09.625',-0.425,-2.615
'23:09.628',-0.415,-2.465
'23:09.631',-0.430,-2.285
'23:09.633',-0.430,-2.075
'23:09.636',-0.415,-1.845
'23:09.639',-0.370,-1.580
'23:09.642',-0.335,-1.335
'23:09.644',-0.310,-1.095
'23:09.647',-0.335,-0.885
'23:09.650',-0.350,-0.690
'23:09.653',-0.375,-0.480
'23:09.656',-0.380,-0.285
'23:09.658',-0.390,-0.120
'23:09.661',-0.405,0.030
'23:09.664',-0.420,0.185
'23:09.667',-0.445,0.335
'23:09.669',-0.455,0.450
'23:09.672',-0.445,0.555
'23:09.675',-0.435,0.620
'23:09.678',-0.415,0.665
'23:09.681',-0.425,0.700
'23:09.683',-0.445,0.730
'23:09.686',-0.440,0.770
'23:09.689',-0.430,0.820
'23:09.692',-0.415,0.840
'23:09.694',-0.435,0.865
'23:09.697',-0.435,0.875
'23:09.700',-0.440,0.895
'23:09.703',-0.440,0.925
'23:09.706',-0.435,0.970
'23:09.708',-0.430,0.980
'23:09.711',-0.435,0.985
'23:09.714',-0.440,0.990
'23:09.717',-0.455,1.030
'23:09.719',-0.450,1.050
'23:09.722',-0.450,1.075
'23:09.725',-0.435,1.110
'23:09.728',-0.435,1.125
'23:09.731',-0.455,1.130
'23:09.733',-0.460,1.155
'23:09.736',-0.465,1.190
'23:09.739',-0.450,1.220
'23:09.742',-0.445,1.240
'23:09.744',-0.445,1.250
'23:09.747',-0.455,1.280
'23:09.750',-0.470,1.300
'23:09.753',-0.470,1.345
'23:09.756',-0.455,1.380
'23:09.758',-0.450,1.415
'23:09.761',-0.440,1.435
'23:09.764',-0.445,1.455
'23:09.767',-0.460,1.480
'23:09.769',-0.455,1.510
'23:09.772',-0.455,1.555
'23:09.775',-0.445,1.575
'23:09.778',-0.435,1.595
'23:09.781',-0.445,1.615
'23:09.783',-0.445,1.630
'23:09.786',-0.450,1.680
'23:09.789',-0.425,1.705
'23:09.792',-0.410,1.725
'23:09.794',-0.415,1.740
'23:09.797',-0.405,1.755
'23:09.800',-0.410,1.775
'23:09.803',-0.400,1.805
'23:09.806',-0.390,1.820
'23:09.808',-0.370,1.830
'23:09.811',-0.365,1.835
'23:09.814',-0.360,1.820
'23:09.817',-0.365,1.825
'23:09.819',-0.350,1.830
'23:09.822',-0.330,1.825
'23:09.825',-0.315,1.800
'23:09.828',-0.315,1.775
'23:09.831',-0.310,1.745
'23:09.833',-0.310,1.720
'23:09.836',-0.285,1.675
'23:09.839',-0.270,1.640
'23:09.842',-0.245,1.605
'23:09.844',-0.255,1.535
'23:09.847',-0.235,1.475
'23:09.850',-0.245,1.415
'23:09.853',-0.235,1.370
'23:09.856',-0.220,1.300
'23:09.858',-0.215,1.255
'23:09.861',-0.205,1.185
'23:09.864',-0.210,1.100
'23:09.867',-0.205,1.030
'23:09.869',-0.200,0.985
'23:09.872',-0.185,0.935
'23:09.875',-0.170,0.865
'23:09.878',-0.170,0.790
'23:09.881',-0.180,0.725
'23:09.883',-0.195,0.675
'23:09.886',-0.200,0.630
'23:09.889',-0.195,0.585
'23:09.892',-0.200,0.535
'23:09.894',-0.205,0.495
'23:09.897',-0.215,0.445
'23:09.900',-0.240,0.400
'23:09.903',-0.225,0.375
'23:09.906',-0.215,0.350
'23:09.908',-0.200,0.330
'23:09.911',-0.200,0.295
'23:09.914',-0.215,0.275
'23:09.917',-0.225,0.245
'23:09.919',-0.240,0.240
'23:09.922',-0.250,0.235
'23:09.925',-0.245,0.205
'23:09.928',-0.245,0.190
'23:09.931',-0.250,0.175
'23:09.933',-0.250,0.155
'23:09.936',-0.260,0.165
'23:09.939',-0.240,0.170
'23:09.942',-0.230,0.150
'23:09.944',-0.230,0.150
'23:09.947',-0.230,0.125
'23:09.950',-0.245,0.125
'23:09.953',-0.240,0.130
'23:09.956',-0.245,0.135
'23:09.958',-0.240,0.130
'23:09.961',-0.245,0.120
'23:09.964',-0.260,0.120
'23:09.967',-0.265,0.115
'23:09.969',-0.265,0.120
'23:09.972',-0.250,0.125
'23:09.975',-0.250,0.115
'23:09.978',-0.245,0.125
'23:09.981',-0.240,0.110
'23:09.983',-0.265,0.110
'23:09.986',-0.255,0.115
'23:09.989',-0.260,0.130
'23:09.992',-0.270,0.125
'23:09.994',-0.270,0.115
'23:09.997',-0.270,0.115
'23:10.000',-0.290,0.100
'23:10.003',-0.280,0.120
'23:10.006',-0.260,0.115
'23:10.008',-0.250,0.115
'23:10.011',-0.245,0.115
'23:10.014',-0.250,0.105
'23:10.017',-0.255,0.095
'23:10.019',-0.260,0.105
'23:10.022',-0.245,0.115
'23:10.025',-0.230,0.105
'23:10.028',-0.240,0.105
'23:10.031',-0.250,0.090
'23:10.033',-0.270,0.085
'23:10.036',-0.275,0.095
'23:10.039',-0.260,0.090
'23:10.042',-0.260,0.100
'23:10.044',-0.260,0.090
'23:10.047',-0.255,0.060
'23:10.050',-0.275,0.065
'23:10.053',-0.270,0.070
'23:10.056',-0.260,0.080
'23:10.058',-0.265,0.080
'23:10.061',-0.270,0.075
'23:10.064',-0.265,0.050
'23:10.067',-0.280,0.045
'23:10.069',-0.290,0.045
'23:10.072',-0.280,0.050
'23:10.075',-0.285,0.050
'23:10.078',-0.275,0.035
'23:10.081',-0.280,0.020
'23:10.083',-0.290,0.015
'23:10.086',-0.265,0.020
'23:10.089',-0.255,0.025
'23:10.092',-0.245,0.015
'23:10.094',-0.255,0.020
'23:10.097',-0.260,0.000
'23:10.100',-0.295,-0.005
'23:10.103',-0.290,0.000
'23:10.106',-0.290,0.000
'23:10.108',-0.275,0.005
'23:10.111',-0.275,-0.015
'23:10.114',-0.275,-0.040
'23:10.117',-0.295,-0.045
'23:10.119',-0.300,-0.025
'23:10.122',-0.300,-0.030
'23:10.125',-0.310,-0.030
'23:10.128',-0.300,-0.040
'23:10.131',-0.305,-0.050
'23:10.133',-0.305,-0.055
'23:10.136',-0.290,-0.055
'23:10.139',-0.280,-0.060
'23:10.142',-0.265,-0.050
'23:10.144',-0.260,-0.065
'23:10.147',-0.265,-0.075
'23:10.150',-0.280,-0.085
'23:10.153',-0.285,-0.070
'23:10.156',-0.285,-0.065
'23:10.158',-0.275,-0.060
'23:10.161',-0.285,-0.060
'23:10.164',-0.280,-0.085
'23:10.167',-0.295,-0.085
'23:10.169',-0.280,-0.075
'23:10.172',-0.275,-0.070
'23:10.175',-0.260,-0.085
'23:10.178',-0.275,-0.090
'23:10.181',-0.270,-0.100
'23:10.183',-0.290,-0.105
'23:10.186',-0.280,-0.090
'23:10.189',-0.280,-0.090
'23:10.192',-0.280,-0.090
'23:10.194',-0.290,-0.095
'23:10.197',-0.305,-0.105
'23:10.200',-0.310,-0.105
'23:10.203',-0.295,-0.095
'23:10.206',-0.270,-0.095
'23:10.208',-0.270,-0.090
'23:10.211',-0.265,-0.105
'23:10.214',-0.270,-0.105
'23:10.217',-0.285,-0.115
'23:10.219',-0.305,-0.115
'23:10.222',-0.295,-0.105
'23:10.225',-0.305,-0.115
'23:10.228',-0.300,-0.110
'23:10.231',-0.295,-0.115
'23:10.233',-0.280,-0.125
'23:10.236',-0.265,-0.120
'23:10.239',-0.250,-0.100
'23:10.242',-0.250,-0.120
'23:10.244',-0.265,-0.130
'23:10.247',-0.280,-0.125
'23:10.250',-0.300,-0.125
'23:10.253',-0.290,-0.125
'23:10.256',-0.265,-0.115
'23:10.258',-0.250,-0.115
'23:10.261',-0.250,-0.120
'23:10.264',-0.260,-0.140
'23:10.267',-0.290,-0.135
'23:10.269',-0.295,-0.125
'23:10.272',-0.295,-0.125
'23:10.275',-0.290,-0.130
'23:10.278',-0.295,-0.130
'23:10.281',-0.310,-0.145
'23:10.283',-0.315,-0.150
'23:10.286',-0.295,-0.140
'23:10.289',-0.295,-0.135
'23:10.292',-0.275,-0.135
'23:10.294',-0.280,-0.140
'23:10.297',-0.285,-0.155
'23:10.300',-0.310,-0.155
'23:10.303',-0.310,-0.145
'23:10.306',-0.305,-0.130
'23:10.308',-0.295,-0.125
'23:10.311',-0.295,-0.135
'23:10.314',-0.295,-0.135
'23:10.317',-0.300,-0.145
'23:10.319',-0.290,-0.140
'23:10.322',-0.250,-0.120
'23:10.325',-0.235,-0.095
'23:10.328',-0.235,-0.070
'23:10.331',-0.235,-0.030
'23:10.333',-0.240,0.120
'23:10.336',-0.230,0.465
'23:10.339',-0.185,0.845
'23:10.342',-0.135,0.955
'23:10.344',-0.060,0.745
'23:10.347',0.085,0.485
'23:10.350',0.390,0.335
'23:10.353',0.765,0.285
'23:10.356',0.935,0.260
'23:10.358',0.795,0.190
'23:10.361',0.465,0.105
'23:10.364',0.245,0.015
'23:10.367',0.170,-0.095
'23:10.369',0.190,-0.225
'23:10.372',0.205,-0.375
'23:10.375',0.200,-0.555
'23:10.378',0.195,-0.765
'23:10.381',0.195,-1.000
'23:10.383',0.200,-1.195
'23:10.386',0.210,-1.365
'23:10.389',0.210,-1.520
'23:10.392',0.195,-1.675
'23:10.394',0.150,-1.825
'23:10.397',0.125,-2.000
'23:10.400',0.105,-2.235
'23:10.403',0.130,-2.425
'23:10.406',0.145,-2.555
'23:10.408',0.160,-2.665
'23:10.411',0.120,-2.755
'23:10.414',0.065,-2.860
'23:10.417',0.000,-2.955
'23:10.419',-0.060,-3.000
'23:10.422',-0.105,-3.030
'23:10.425',-0.145,-3.050
'23:10.428',-0.205,-3.075
'23:10.431',-0.285,-3.105
'23:10.433',-0.405,-3.105
'23:10.436',-0.520,-3.110
'23:10.439',-0.625,-3.100
'23:10.442',-0.680,-3.100
'23:10.444',-0.680,-3.095
'23:10.447',-0.620,-3.080
'23:10.450',-0.575,-3.055
'23:10.453',-0.540,-3.000
'23:10.456',-0.510,-2.915
'23:10.458',-0.500,-2.805
'23:10.461',-0.510,-2.660
'23:10.464',-0.500,-2.510
'23:10.467',-0.500,-2.340
'23:10.469',-0.470,-2.125
'23:10.472',-0.440,-1.880
'23:10.475',-0.400,-1.645
'23:10.478',-0.355,-1.390
'23:10.481',-0.325,-1.155
'23:10.483',-0.315,-0.930
'23:10.486',-0.310,-0.710
'23:10.489',-0.310,-0.510
'23:10.492',-0.295,-0.330
'23:10.494',-0.295,-0.160
'23:10.497',-0.310,-0.010
'23:10.500',-0.310,0.135
'23:10.503',-0.320,0.300
'23:10.506',-0.295,0.410
'23:10.508',-0.280,0.505
'23:10.511',-0.280,0.595
'23:10.514',-0.285,0.640
'23:10.517',-0.300,0.700
'23:10.519',-0.305,0.750
'23:10.522',-0.290,0.795
'23:10.525',-0.290,0.815
'23:10.528',-0.270,0.840
'23:10.531',-0.285,0.850
'23:10.533',-0.285,0.880
'23:10.536',-0.280,0.915
'23:10.539',-0.290,0.935
'23:10.542',-0.295,0.955
'23:10.544',-0.285,0.985
'23:10.547',-0.315,1.000
'23:10.550',-0.345,1.000
'23:10.553',-0.355,1.030
'23:10.556',-0.355,1.070
'23:10.558',-0.335,1.080
'23:10.561',-0.310,1.100
'23:10.564',-0.315,1.100
'23:10.567',-0.325,1.115
'23:10.569',-0.345,1.150
'23:10.572',-0.370,1.185
'23:10.575',-0.370,1.215
'23:10.578',-0.345,1.220
'23:10.581',-0.340,1.245
'23:10.583',-0.330,1.265
'23:10.586',-0.325,1.295
'23:10.589',-0.325,1.325
'23:10.592',-0.345,1.355
'23:10.594',-0.380,1.370
'23:10.597',-0.390,1.385
'23:10.600',-0.390,1.420
'23:10.603',-0.360,1.450
'23:10.606',-0.320,1.495
'23:10.608',-0.320,1.515
'23:10.611',-0.345,1.540
'23:10.614',-0.355,1.560
'23:10.617',-0.350,1.580
'23:10.619',-0.330,1.625
'23:10.622',-0.300,1.660
'23:10.625',-0.270,1.685
'23:10.628',-0.275,1.705
'23:10.631',-0.300,1.715
'23:10.633',-0.315,1.730
'23:10.636',-0.325,1.765
'23:10.639',-0.315,1.790
'23:10.642',-0.290,1.790
'23:10.644',-0.270,1.790
'23:10.647',-0.240,1.795
'23:10.650',-0.230,1.795
'23:10.653',-0.235,1.790
'23:10.656',-0.215,1.805
'23:10.658',-0.215,1.795
'23:10.661',-0.200,1.765
'23:10.664',-0.160,1.750
'23:10.667',-0.145,1.710
'23:10.669',-0.115,1.695
'23:10.672',-0.125,1.655
'23:10.675',-0.115,1.615
'23:10.678',-0.115,1.570
'23:10.681',-0.115,1.510
'23:10.683',-0.110,1.450
'23:10.686',-0.100,1.405
'23:10.689',-0.070,1.355
'23:10.692',-0.050,1.285
'23:10.694',-0.035,1.200
'23:10.697',-0.050,1.145
'23:10.700',-0.055,1.075
'23:10.703',-0.070,1.025
'23:10.706',-0.060,0.985
'23:10.708',-0.055,0.915
'23:10.711',-0.065,0.855
'23:10.714',-0.065,0.795
'23:10.717',-0.080,0.745
'23:10.719',-0.060,0.695
'23:10.722',-0.065,0.660
'23:10.725',-0.070,0.610
'23:10.728',-0.090,0.555
'23:10.731',-0.105,0.520
'23:10.733',-0.105,0.480
'23:10.736',-0.100,0.455
'23:10.739',-0.105,0.425
'23:10.742',-0.080,0.400
'23:10.744',-0.095,0.370
'23:10.747',-0.115,0.330
'23:10.750',-0.130,0.305
'23:10.753',-0.135,0.305
'23:10.756',-0.145,0.290
'23:10.758',-0.125,0.275
'23:10.761',-0.140,0.250
'23:10.764',-0.140,0.230
'23:10.767',-0.155,0.215
'23:10.769',-0.165,0.220
'23:10.772',-0.160,0.205
'23:10.775',-0.160,0.205
'23:10.778',-0.165,0.190
'23:10.781',-0.185,0.180
'23:10.783',-0.195,0.175
'23:10.786',-0.185,0.175
'23:10.789',-0.180,0.180
'23:10.792',-0.185,0.185
'23:10.794',-0.190,0.180
'23:10.797',-0.180,0.160
'23:10.800',-0.205,0.160
'23:10.803',-0.210,0.175
'23:10.806',-0.190,0.160
'23:10.808',-0.185,0.165
'23:10.811',-0.195,0.150
'23:10.814',-0.205,0.145
'23:10.817',-0.215,0.145
'23:10.819',-0.205,0.155
'23:10.822',-0.195,0.160
'23:10.825',-0.190,0.155
'23:10.828',-0.200,0.155
'23:10.831',-0.210,0.140
'23:10.833',-0.225,0.145
'23:10.836',-0.220,0.160
'23:10.839',-0.200,0.165
'23:10.842',-0.215,0.160
'23:10.844',-0.205,0.155
'23:10.847',-0.200,0.135
'23:10.850',-0.225,0.135
'23:10.853',-0.225,0.155
'23:10.856',-0.220,0.160
'23:10.858',-0.210,0.160
'23:10.861',-0.200,0.140
'23:10.864',-0.210,0.140
'23:10.867',-0.225,0.135
'23:10.869',-0.215,0.135
'23:10.872',-0.210,0.155
'23:10.875',-0.215,0.150
'23:10.878',-0.215,0.135
'23:10.881',-0.220,0.125
'23:10.883',-0.245,0.115
'23:10.886',-0.235,0.125
'23:10.889',-0.230,0.130
'23:10.892',-0.225,0.135
'23:10.894',-0.240,0.120
'23:10.897',-0.235,0.100
'23:10.900',-0.255,0.105
'23:10.903',-0.240,0.100
'23:10.906',-0.235,0.110
'23:10.908',-0.225,0.105
'23:10.911',-0.235,0.095
'23:10.914',-0.240,0.075
'23:10.917',-0.250,0.075
'23:10.919',-0.245,0.080
'23:10.922',-0.230,0.090
'23:10.925',-0.250,0.075
'23:10.928',-0.235,0.060
'23:10.931',-0.255,0.040
'23:10.933',-0.260,0.050
'23:10.936',-0.265,0.045
'23:10.939',-0.260,0.050
'23:10.942',-0.245,0.050
'23:10.944',-0.260,0.045
'23:10.947',-0.265,0.020
'23:10.950',-0.280,0.025
'23:10.953',-0.270,0.030
'23:10.956',-0.260,0.030
'23:10.958',-0.250,0.020
'23:10.961',-0.255,0.020
'23:10.964',-0.270,0.005
'23:10.967',-0.280,-0.005
'23:10.969',-0.285,0.005
'23:10.972',-0.280,0.000
'23:10.975',-0.285,0.010
'23:10.978',-0.285,0.000
'23:10.981',-0.275,-0.020
'23:10.983',-0.285,-0.020
'23:10.986',-0.275,-0.015
'23:10.989',-0.280,-0.010
'23:10.992',-0.275,-0.020
'23:10.994',-0.275,-0.025
'23:10.997',-0.280,-0.030
'23:11.000',-0.295,-0.025
'23:11.003',-0.285,-0.025
'23:11.006',-0.290,-0.020
'23:11.008',-0.275,-0.025
'23:11.011',-0.285,-0.030
'23:11.014',-0.300,-0.040
'23:11.017',-0.315,-0.045
'23:11.019',-0.295,-0.040
'23:11.022',-0.300,-0.025
'23:11.025',-0.290,-0.030
'23:11.028',-0.295,-0.035
'23:11.031',-0.305,-0.040
'23:11.033',-0.320,-0.050
'23:11.036',-0.315,-0.050
'23:11.039',-0.295,-0.055
'23:11.042',-0.290,-0.050
'23:11.044',-0.295,-0.040
'23:11.047',-0.290,-0.055
'23:11.050',-0.315,-0.055
'23:11.053',-0.310,-0.050
'23:11.056',-0.305,-0.045
'23:11.058',-0.300,-0.050
'23:11.061',-0.300,-0.060
'23:11.064',-0.310,-0.065
'23:11.067',-0.320,-0.060
'23:11.069',-0.310,-0.050
'23:11.072',-0.305,-0.040
'23:11.075',-0.300,-0.050
'23:11.078',-0.300,-0.055
'23:11.081',-0.310,-0.075
'23:11.083',-0.325,-0.075
'23:11.086',-0.320,-0.065
'23:11.089',-0.315,-0.055
'23:11.092',-0.300,-0.065
'23:11.094',-0.305,-0.065
'23:11.097',-0.315,-0.080
'23:11.100',-0.325,-0.085
'23:11.103',-0.325,-0.070
'23:11.106',-0.320,-0.055
'23:11.108',-0.320,-0.065
'23:11.111',-0.315,-0.075
'23:11.114',-0.330,-0.085
'23:11.117',-0.330,-0.090
'23:11.119',-0.325,-0.085
'23:11.122',-0.305,-0.070
'23:11.125',-0.305,-0.080
'23:11.128',-0.310,-0.080
'23:11.131',-0.315,-0.095
'23:11.133',-0.325,-0.095
'23:11.136',-0.325,-0.095
'23:11.139',-0.310,-0.080
'23:11.142',-0.300,-0.090
'23:11.144',-0.305,-0.075
'23:11.147',-0.305,-0.095
'23:11.150',-0.310,-0.090
'23:11.153',-0.315,-0.090
'23:11.156',-0.305,-0.080
'23:11.158',-0.300,-0.060
'23:11.161',-0.295,-0.050
'23:11.164',-0.310,-0.035
'23:11.167',-0.300,0.045
'23:11.169',-0.285,0.225
'23:11.172',-0.260,0.590
'23:11.175',-0.225,0.930
'23:11.178',-0.180,0.950
'23:11.181',-0.140,0.695
'23:11.183',0.010,0.460
'23:11.186',0.345,0.365
'23:11.189',0.700,0.345
'23:11.192',0.775,0.315
'23:11.194',0.510,0.245
'23:11.197',0.215,0.170
'23:11.200',0.080,0.070
'23:11.203',0.100,-0.050
'23:11.206',0.140,-0.200
'23:11.208',0.175,-0.415
'23:11.211',0.165,-0.640
'23:11.214',0.170,-0.875
'23:11.217',0.150,-1.090
'23:11.219',0.185,-1.275
'23:11.222',0.180,-1.445
'23:11.225',0.190,-1.620
'23:11.228',0.170,-1.825
'23:11.231',0.155,-2.045
'23:11.233',0.150,-2.270
'23:11.236',0.150,-2.450
'23:11.239',0.135,-2.550
'23:11.242',0.105,-2.660
'23:11.244',0.060,-2.775
'23:11.247',0.005,-2.880
'23:11.250',-0.055,-2.960
'23:11.253',-0.115,-2.990
'23:11.256',-0.175,-3.020
'23:11.258',-0.215,-3.055
'23:11.261',-0.275,-3.075
'23:11.264',-0.360,-3.085
'23:11.267',-0.485,-3.100
'23:11.269',-0.540,-3.100
'23:11.272',-0.595,-3.080
'23:11.275',-0.575,-3.085
'23:11.278',-0.525,-3.065
'23:11.281',-0.505,-3.040
'23:11.283',-0.500,-2.985
'23:11.286',-0.485,-2.895
'23:11.289',-0.485,-2.770
'23:11.292',-0.470,-2.625
'23:11.294',-0.465,-2.450
'23:11.297',-0.480,-2.275
'23:11.300',-0.480,-2.055
'23:11.303',-0.430,-1.795
'23:11.306',-0.390,-1.540
'23:11.308',-0.360,-1.280
'23:11.311',-0.325,-1.035
'23:11.314',-0.345,-0.820
'23:11.317',-0.375,-0.595
'23:11.319',-0.390,-0.395
'23:11.322',-0.380,-0.200
'23:11.325',-0.395,-0.020
'23:11.328',-0.410,0.140
'23:11.331',-0.425,0.300
'23:11.333',-0.435,0.445
'23:11.336',-0.425,0.575
'23:11.339',-0.415,0.675
'23:11.342',-0.405,0.735
'23:11.344',-0.405,0.765
'23:11.347',-0.405,0.805
'23:11.350',-0.425,0.845
'23:11.353',-0.420,0.895
'23:11.356',-0.395,0.930
'23:11.358',-0.400,0.965
'23:11.361',-0.400,0.985
'23:11.364',-0.395,1.005
'23:11.367',-0.425,1.040
'23:11.369',-0.400,1.065
'23:11.372',-0.390,1.090
'23:11.375',-0.375,1.105
'23:11.378',-0.380,1.110
'23:11.381',-0.390,1.120
'23:11.383',-0.400,1.135
'23:11.386',-0.400,1.155
'23:11.389',-0.390,1.185
'23:11.392',-0.390,1.190
'23:11.394',-0.390,1.200
'23:11.397',-0.380,1.205
'23:11.400',-0.385,1.230
'23:11.403',-0.380,1.255
'23:11.406',-0.375,1.275
'23:11.408',-0.380,1.305
'23:11.411',-0.395,1.315
'23:11.414',-0.400,1.335
'23:11.417',-0.415,1.345
'23:11.419',-0.410,1.405
'23:11.422',-0.405,1.460
'23:11.425',-0.405,1.485
'23:11.428',-0.415,1.520
'23:11.431',-0.445,1.535
'23:11.433',-0.465,1.560
'23:11.436',-0.460,1.590
'23:11.439',-0.460,1.625
'23:11.442',-0.470,1.660
'23:11.444',-0.455,1.685
'23:11.447',-0.475,1.690
'23:11.450',-0.485,1.725
'23:11.453',-0.465,1.755
'23:11.456',-0.460,1.795
'23:11.458',-0.460,1.805
'23:11.461',-0.445,1.815
'23:11.464',-0.450,1.820
'23:11.467',-0.455,1.825
'23:11.469',-0.440,1.845
'23:11.472',-0.430,1.865
'23:11.475',-0.425,1.855
'23:11.478',-0.430,1.840
'23:11.481',-0.435,1.825
'23:11.483',-0.425,1.800
'23:11.486',-0.420,1.785
'23:11.489',-0.385,1.775
'23:11.492',-0.365,1.750
'23:11.494',-0.365,1.705
'23:11.497',-0.355,1.650
'23:11.500',-0.355,1.605
'23:11.503',-0.335,1.575
'23:11.506',-0.305,1.530
'23:11.508',-0.300,1.465
'23:11.511',-0.290,1.400
'23:11.514',-0.285,1.335
'23:11.517',-0.280,1.265
'23:11.519',-0.265,1.215
'23:11.522',-0.245,1.180
'23:11.525',-0.245,1.110
'23:11.528',-0.225,1.045
'23:11.531',-0.230,0.965
'23:11.533',-0.235,0.895
'23:11.536',-0.225,0.860
'23:11.539',-0.220,0.815
'23:11.542',-0.215,0.755
'23:11.544',-0.215,0.690
'23:11.547',-0.215,0.635
'23:11.550',-0.230,0.590
'23:11.553',-0.235,0.550
'23:11.556',-0.235,0.525
'23:11.558',-0.225,0.470
'23:11.561',-0.225,0.430
'23:11.564',-0.235,0.390
'23:11.567',-0.245,0.365
'23:11.569',-0.250,0.340
'23:11.572',-0.255,0.330
'23:11.575',-0.245,0.305
'23:11.578',-0.235,0.280
'23:11.581',-0.260,0.260
'23:11.583',-0.275,0.240
'23:11.586',-0.260,0.235
'23:11.589',-0.265,0.225
'23:11.592',-0.260,0.215
'23:11.594',-0.285,0.215
'23:11.597',-0.275,0.190
'23:11.600',-0.290,0.185
'23:11.603',-0.285,0.190
'23:11.606',-0.285,0.195
'23:11.608',-0.270,0.195
'23:11.611',-0.275,0.180
'23:11.614',-0.290,0.160
'23:11.617',-0.300,0.165
'23:11.619',-0.300,0.165
'23:11.622',-0.290,0.185
'23:11.625',-0.290,0.180
'23:11.628',-0.290,0.165
'23:11.631',-0.295,0.155
'23:11.633',-0.305,0.165
'23:11.636',-0.300,0.170
'23:11.639',-0.290,0.175
'23:11.642',-0.285,0.180
'23:11.644',-0.295,0.175
'23:11.647',-0.305,0.165
'23:11.650',-0.315,0.160
'23:11.653',-0.310,0.180
'23:11.656',-0.295,0.180
'23:11.658',-0.285,0.195
'23:11.661',-0.305,0.180
'23:11.664',-0.310,0.175
'23:11.667',-0.320,0.165
'23:11.669',-0.325,0.185
'23:11.672',-0.305,0.185
'23:11.675',-0.310,0.190
'23:11.678',-0.305,0.175
'23:11.681',-0.315,0.160
'23:11.683',-0.330,0.155
'23:11.686',-0.315,0.175
'23:11.689',-0.310,0.185
'23:11.692',-0.320,0.185
'23:11.694',-0.315,0.165
'23:11.697',-0.320,0.155
'23:11.700',-0.325,0.150
'23:11.703',-0.320,0.155
'23:11.706',-0.330,0.170
'23:11.708',-0.335,0.150
'23:11.711',-0.325,0.150
'23:11.714',-0.325,0.130
'23:11.717',-0.340,0.130
'23:11.719',-0.340,0.130
'23:11.722',-0.330,0.130
'23:11.725',-0.315,0.120
'23:11.728',-0.325,0.125
'23:11.731',-0.340,0.100
'23:11.733',-0.340,0.095
'23:11.736',-0.340,0.110
'23:11.739',-0.325,0.100
'23:11.742',-0.330,0.100
'23:11.744',-0.325,0.085
'23:11.747',-0.340,0.075
'23:11.750',-0.345,0.045
'23:11.753',-0.345,0.055
'23:11.756',-0.335,0.070
'23:11.758',-0.335,0.065
'23:11.761',-0.340,0.055
'23:11.764',-0.350,0.040
'23:11.767',-0.360,0.035
'23:11.769',-0.355,0.035
'23:11.772',-0.340,0.040
'23:11.775',-0.335,0.030
'23:11.778',-0.340,0.020
'23:11.781',-0.350,0.005
'23:11.783',-0.365,0.010
'23:11.786',-0.355,0.000
'23:11.789',-0.355,0.020
'23:11.792',-0.355,0.010
'23:11.794',-0.355,0.000
'23:11.797',-0.355,-0.015
'23:11.800',-0.365,-0.020
'23:11.803',-0.360,-0.005
'23:11.806',-0.345,0.000
'23:11.808',-0.340,-0.025
'23:11.811',-0.345,-0.010
'23:11.814',-0.355,-0.040
'23:11.817',-0.370,-0.030
'23:11.819',-0.365,-0.040
'23:11.822',-0.350,-0.025
'23:11.825',-0.340,-0.030
'23:11.828',-0.345,-0.030
'23:11.831',-0.355,-0.045
'23:11.833',-0.360,-0.060
'23:11.836',-0.360,-0.050
'23:11.839',-0.355,-0.035
'23:11.842',-0.345,-0.040
'23:11.844',-0.355,-0.050
'23:11.847',-0.360,-0.065
'23:11.850',-0.375,-0.060
'23:11.853',-0.375,-0.055
'23:11.856',-0.360,-0.050
'23:11.858',-0.360,-0.050
'23:11.861',-0.360,-0.060
'23:11.864',-0.365,-0.070
'23:11.867',-0.365,-0.075
'23:11.869',-0.370,-0.060
'23:11.872',-0.355,-0.055
'23:11.875',-0.350,-0.065
'23:11.878',-0.350,-0.065
'23:11.881',-0.360,-0.080
'23:11.883',-0.360,-0.080
'23:11.886',-0.360,-0.085
'23:11.889',-0.360,-0.065
'23:11.892',-0.345,-0.070
'23:11.894',-0.350,-0.080
'23:11.897',-0.365,-0.085
'23:11.900',-0.360,-0.090
'23:11.903',-0.355,-0.090
'23:11.906',-0.350,-0.075
'23:11.908',-0.355,-0.080
'23:11.911',-0.345,-0.080
'23:11.914',-0.350,-0.095
'23:11.917',-0.355,-0.095
'23:11.919',-0.355,-0.090
'23:11.922',-0.340,-0.085
'23:11.925',-0.340,-0.080
'23:11.928',-0.340,-0.100
'23:11.931',-0.345,-0.105
'23:11.933',-0.350,-0.105
'23:11.936',-0.350,-0.095
'23:11.939',-0.335,-0.085
'23:11.942',-0.325,-0.085
'23:11.944',-0.340,-0.095
'23:11.947',-0.340,-0.105
'23:11.950',-0.335,-0.110
'23:11.953',-0.345,-0.110
'23:11.956',-0.335,-0.080
'23:11.958',-0.325,-0.100
'23:11.961',-0.320,-0.095
'23:11.964',-0.335,-0.100
'23:11.967',-0.340,-0.090
'23:11.969',-0.325,-0.080
'23:11.972',-0.315,-0.060
'23:11.975',-0.305,-0.025
'23:11.978',-0.295,0.050
'23:11.981',-0.280,0.235
'23:11.983',-0.280,0.615
'23:11.986',-0.230,0.910
'23:11.989',-0.185,0.885
'23:11.992',-0.060,0.605
'23:11.994',0.165,0.390
'23:11.997',0.550,0.300
'23:12.000',0.850,0.250
'23:12.003',0.790,0.205
'23:12.006',0.490,0.120
'23:12.008',0.205,0.015
'23:12.011',0.110,-0.140
'23:12.014',0.100,-0.315
'23:12.017',0.125,-0.495
'23:12.019',0.135,-0.705
'23:12.022',0.135,-0.925
'23:12.025',0.140,-1.125
'23:12.028',0.150,-1.305
'23:12.031',0.155,-1.465
'23:12.033',0.135,-1.620
'23:12.036',0.125,-1.785
'23:12.039',0.120,-1.995
'23:12.042',0.120,-2.215
'23:12.044',0.135,-2.435
'23:12.047',0.130,-2.575
'23:12.050',0.100,-2.690
'23:12.053',0.070,-2.775
'23:12.056',0.040,-2.865
'23:12.058',0.015,-2.955
'23:12.061',-0.035,-3.005
'23:12.064',-0.105,-3.050
'23:12.067',-0.175,-3.080
'23:12.069',-0.230,-3.100
'23:12.072',-0.295,-3.095
'23:12.075',-0.370,-3.110
'23:12.078',-0.465,-3.125
'23:12.081',-0.545,-3.120
'23:12.083',-0.575,-3.125
'23:12.086',-0.535,-3.105
'23:12.089',-0.475,-3.075
'23:12.092',-0.435,-3.045
'23:12.094',-0.410,-2.980
'23:12.097',-0.410,-2.900
'23:12.100',-0.440,-2.785
'23:12.103',-0.450,-2.625
'23:12.106',-0.435,-2.445
'23:12.108',-0.425,-2.225
'23:12.111',-0.430,-1.995
'23:12.114',-0.395,-1.760
'23:12.117',-0.370,-1.495
'23:12.119',-0.335,-1.220
'23:12.122',-0.310,-0.970
'23:12.125',-0.325,-0.770
'23:12.128',-0.335,-0.555
'23:12.131',-0.365,-0.380
'23:12.133',-0.380,-0.195
'23:12.136',-0.385,-0.020
'23:12.139',-0.370,0.145
'23:12.142',-0.375,0.310
'23:12.144',-0.380,0.440
'23:12.147',-0.375,0.545
'23:12.150',-0.385,0.605
'23:12.153',-0.370,0.675
'23:12.156',-0.350,0.725
'23:12.158',-0.355,0.760
'23:12.161',-0.355,0.795
'23:12.164',-0.355,0.815
'23:12.167',-0.360,0.860
'23:12.169',-0.355,0.890
'23:12.172',-0.345,0.925
'23:12.175',-0.340,0.945
'23:12.178',-0.350,0.970
'23:12.181',-0.350,0.980
'23:12.183',-0.375,1.000
'23:12.186',-0.365,1.035
'23:12.189',-0.360,1.060
'23:12.192',-0.355,1.090
'23:12.194',-0.360,1.100
'23:12.197',-0.360,1.105
'23:12.200',-0.375,1.140
'23:12.203',-0.380,1.180
'23:12.206',-0.370,1.210
'23:12.208',-0.365,1.250
'23:12.211',-0.370,1.255
'23:12.214',-0.385,1.285
'23:12.217',-0.405,1.305
'23:12.219',-0.395,1.355
'23:12.222',-0.380,1.385
'23:12.225',-0.380,1.410
'23:12.228',-0.385,1.435
'23:12.231',-0.400,1.450
'23:12.233',-0.410,1.480
'23:12.236',-0.400,1.525
'23:12.239',-0.380,1.565
'23:12.242',-0.380,1.605
'23:12.244',-0.375,1.620
'23:12.247',-0.365,1.630
'23:12.250',-0.370,1.655
'23:12.253',-0.375,1.680
'23:12.256',-0.360,1.715
'23:12.258',-0.340,1.730
'23:12.261',-0.330,1.750
'23:12.264',-0.340,1.740
'23:12.267',-0.335,1.765
'23:12.269',-0.315,1.785
'23:12.272',-0.305,1.810
'23:12.275',-0.285,1.820
'23:12.278',-0.285,1.810
'23:12.281',-0.280,1.825
'23:12.283',-0.300,1.830
'23:12.286',-0.305,1.835
'23:12.289',-0.285,1.850
'23:12.292',-0.265,1.840
'23:12.294',-0.270,1.845
'23:12.297',-0.265,1.830
'23:12.300',-0.275,1.825
'23:12.303',-0.270,1.820
'23:12.306',-0.250,1.805
'23:12.308',-0.245,1.765
'23:12.311',-0.260,1.720
'23:12.314',-0.270,1.665
'23:12.317',-0.280,1.620
'23:12.319',-0.275,1.580
'23:12.322',-0.260,1.555
'23:12.325',-0.245,1.490
'23:12.328',-0.250,1.435
'23:12.331',-0.245,1.365
'23:12.333',-0.235,1.305
'23:12.336',-0.235,1.255
'23:12.339',-0.215,1.200
'23:12.342',-0.220,1.145
'23:12.344',-0.210,1.080
'23:12.347',-0.205,1.005
'23:12.350',-0.210,0.935
'23:12.353',-0.205,0.895
'23:12.356',-0.190,0.830
'23:12.358',-0.185,0.770
'23:12.361',-0.195,0.720
'23:12.364',-0.195,0.655
'23:12.367',-0.200,0.590
'23:12.369',-0.210,0.570
'23:12.372',-0.200,0.520
'23:12.375',-0.200,0.480
'23:12.378',-0.195,0.430
'23:12.381',-0.215,0.385
'23:12.383',-0.220,0.355
'23:12.386',-0.215,0.325
'23:12.389',-0.215,0.305
'23:12.392',-0.205,0.285
'23:12.394',-0.215,0.255
'23:12.397',-0.225,0.225
'23:12.400',-0.240,0.225
'23:12.403',-0.225,0.205
'23:12.406',-0.220,0.195
'23:12.408',-0.220,0.190
'23:12.411',-0.220,0.165
'23:12.414',-0.240,0.135
'23:12.417',-0.250,0.135
'23:12.419',-0.250,0.145
'23:12.422',-0.250,0.150
'23:12.425',-0.245,0.135
'23:12.428',-0.265,0.120
'23:12.431',-0.280,0.110
'23:12.433',-0.295,0.095
'23:12.436',-0.290,0.115
'23:12.439',-0.265,0.125
'23:12.442',-0.260,0.115
'23:12.444',-0.275,0.120
'23:12.447',-0.270,0.110
'23:12.450',-0.275,0.105
'23:12.453',-0.270,0.110
'23:12.456',-0.255,0.120
'23:12.458',-0.245,0.120
'23:12.461',-0.250,0.130
'23:12.464',-0.250,0.100
'23:12.467',-0.265,0.105
'23:12.469',-0.265,0.115
'23:12.472',-0.270,0.135
'23:12.475',-0.260,0.135
'23:12.478',-0.270,0.125
'23:12.481',-0.285,0.125
'23:12.483',-0.285,0.120
'23:12.486',-0.280,0.115
'23:12.489',-0.265,0.140
'23:12.492',-0.240,0.130
'23:12.494',-0.250,0.125
'23:12.497',-0.245,0.100
'23:12.500',-0.255,0.100
'23:12.503',-0.260,0.115
'23:12.506',-0.255,0.130
'23:12.508',-0.235,0.135
'23:12.511',-0.240,0.120
'23:12.514',-0.255,0.105
'23:12.517',-0.275,0.100
'23:12.519',-0.275,0.110
'23:12.522',-0.255,0.110
'23:12.525',-0.260,0.105
'23:12.528',-0.265,0.100
'23:12.531',-0.265,0.095
'23:12.533',-0.270,0.070
'23:12.536',-0.270,0.085
'23:12.539',-0.245,0.100
'23:12.542',-0.260,0.090
'23:12.544',-0.255,0.070
'23:12.547',-0.265,0.065
'23:12.550',-0.280,0.050
'23:12.553',-0.280,0.065
'23:12.556',-0.280,0.065
'23:12.558',-0.270,0.050
'23:12.561',-0.280,0.035
'23:12.564',-0.290,0.035
'23:12.567',-0.285,0.025
'23:12.569',-0.305,0.015
'23:12.572',-0.290,0.030
'23:12.575',-0.305,0.010
'23:12.578',-0.300,0.005
'23:12.581',-0.315,0.005
'23:12.583',-0.310,-0.015
'23:12.586',-0.285,0.000
'23:12.589',-0.265,0.005
'23:12.592',-0.260,-0.010
'23:12.594',-0.255,-0.020
'23:12.597',-0.285,-0.025
'23:12.600',-0.295,-0.030
'23:12.603',-0.290,-0.020
'23:12.606',-0.285,-0.025
'23:12.608',-0.285,-0.025
'23:12.611',-0.290,-0.030
'23:12.614',-0.310,-0.045
'23:12.617',-0.305,-0.050
'23:12.619',-0.295,-0.040
'23:12.622',-0.285,-0.040
'23:12.625',-0.280,-0.045
'23:12.628',-0.290,-0.060
'23:12.631',-0.295,-0.065
'23:12.633',-0.290,-0.060
'23:12.636',-0.290,-0.055
'23:12.639',-0.275,-0.045
'23:12.642',-0.275,-0.055
'23:12.644',-0.270,-0.065
'23:12.647',-0.285,-0.075
'23:12.650',-0.295,-0.070
'23:12.653',-0.285,-0.075
'23:12.656',-0.285,-0.060
'23:12.658',-0.275,-0.065
'23:12.661',-0.280,-0.075
'23:12.664',-0.285,-0.075
'23:12.667',-0.295,-0.090
'23:12.669',-0.285,-0.075
'23:12.672',-0.280,-0.075
'23:12.675',-0.285,-0.075
'23:12.678',-0.295,-0.080
'23:12.681',-0.305,-0.090
'23:12.683',-0.315,-0.100
'23:12.686',-0.295,-0.095
'23:12.689',-0.290,-0.090
'23:12.692',-0.275,-0.090
'23:12.694',-0.280,-0.090
'23:12.697',-0.285,-0.100
'23:12.700',-0.295,-0.105
'23:12.703',-0.285,-0.100
'23:12.706',-0.280,-0.080
'23:12.708',-0.265,-0.090
'23:12.711',-0.265,-0.095
'23:12.714',-0.275,-0.110
'23:12.717',-0.285,-0.115
'23:12.719',-0.270,-0.105
'23:12.722',-0.260,-0.095
'23:12.725',-0.265,-0.100
'23:12.728',-0.265,-0.120
'23:12.731',-0.270,-0.120
'23:12.733',-0.280,-0.125
'23:12.736',-0.270,-0.120
'23:12.739',-0.255,-0.115
'23:12.742',-0.260,-0.120
'23:12.744',-0.265,-0.130
'23:12.747',-0.270,-0.140
'23:12.750',-0.285,-0.140
'23:12.753',-0.280,-0.130
'23:12.756',-0.285,-0.120
'23:12.758',-0.280,-0.110
'23:12.761',-0.270,-0.120
'23:12.764',-0.265,-0.140
'23:12.767',-0.250,-0.135
'23:12.769',-0.240,-0.120
'23:12.772',-0.225,-0.125
'23:12.775',-0.225,-0.130
'23:12.778',-0.235,-0.115
'23:12.781',-0.260,-0.135
'23:12.783',-0.280,-0.125
'23:12.786',-0.260,-0.105
'23:12.789',-0.270,-0.080
'23:12.792',-0.240,-0.045
'23:12.794',-0.230,0.045
'23:12.797',-0.215,0.315
'23:12.800',-0.190,0.675
'23:12.803',-0.160,0.810
'23:12.806',-0.115,0.635
'23:12.808',-0.005,0.420
'23:12.811',0.245,0.300
'23:12.814',0.600,0.250
'23:12.817',0.795,0.190
'23:12.819',0.690,0.120
'23:12.822',0.430,0.050
'23:12.825',0.250,-0.075
'23:12.828',0.185,-0.210
'23:12.831',0.180,-0.375
'23:12.833',0.160,-0.555
'23:12.836',0.155,-0.770
'23:12.839',0.170,-0.980
'23:12.842',0.175,-1.180
'23:12.844',0.205,-1.365
'23:12.847',0.210,-1.525
'23:12.850',0.180,-1.690
'23:12.853',0.165,-1.855
'23:12.856',0.155,-2.045
'23:12.858',0.165,-2.275
'23:12.861',0.165,-2.495
'23:12.864',0.150,-2.670
'23:12.867',0.115,-2.770
'23:12.869',0.090,-2.850
'23:12.872',0.060,-2.935
'23:12.875',0.020,-3.010
'23:12.878',-0.040,-3.050
'23:12.881',-0.115,-3.090
'23:12.883',-0.210,-3.115
'23:12.886',-0.270,-3.120
'23:12.889',-0.325,-3.120
'23:12.892',-0.420,-3.140
'23:12.894',-0.515,-3.155
'23:12.897',-0.595,-3.165
'23:12.900',-0.615,-3.135
'23:12.903',-0.580,-3.130
'23:12.906',-0.520,-3.085
'23:12.908',-0.500,-3.030
'23:12.911',-0.510,-2.970
'23:12.914',-0.515,-2.870
'23:12.917',-0.500,-2.715
'23:12.919',-0.485,-2.525
'23:12.922',-0.435,-2.315
'23:12.925',-0.390,-2.080
'23:12.928',-0.365,-1.830
'23:12.931',-0.325,-1.595
'23:12.933',-0.310,-1.320
'23:12.936',-0.280,-1.060
'23:12.939',-0.275,-0.820
'23:12.942',-0.270,-0.610
'23:12.944',-0.285,-0.400
'23:12.947',-0.320,-0.225
'23:12.950',-0.335,-0.055
'23:12.953',-0.340,0.115
'23:12.956',-0.315,0.285
'23:12.958',-0.290,0.420
'23:12.961',-0.270,0.515
'23:12.964',-0.270,0.590
'23:12.967',-0.275,0.655
'23:12.969',-0.260,0.715
'23:12.972',-0.235,0.755
'23:12.975',-0.215,0.780
'23:12.978',-0.205,0.805
'23:12.981',-0.225,0.830
'23:12.983',-0.235,0.850
'23:12.986',-0.230,0.895
'23:12.989',-0.225,0.920
'23:12.992',-0.225,0.955
'23:12.994',-0.220,0.970
'23:12.997',-0.230,0.980
'23:13.000',-0.250,1.000
'23:13.003',-0.250,1.030
'23:13.006',-0.235,1.055
'23:13.008',-0.225,1.075
'23:13.011',-0.225,1.085
'23:13.014',-0.205,1.110
'23:13.017',-0.230,1.125
'23:13.019',-0.245,1.155
'23:13.022',-0.240,1.185
'23:13.025',-0.225,1.210
'23:13.028',-0.210,1.230
'23:13.031',-0.195,1.245
'23:13.033',-0.205,1.265
'23:13.036',-0.200,1.295
'23:13.039',-0.215,1.330
'23:13.042',-0.215,1.360
'23:13.044',-0.215,1.385
'23:13.047',-0.225,1.395
'23:13.050',-0.220,1.430
'23:13.053',-0.195,1.465
'23:13.056',-0.205,1.510
'23:13.058',-0.215,1.540
'23:13.061',-0.225,1.570
'23:13.064',-0.230,1.590
'23:13.067',-0.225,1.630
'23:13.069',-0.215,1.665
'23:13.072',-0.215,1.710
'23:13.075',-0.210,1.745
'23:13.078',-0.190,1.765
'23:13.081',-0.175,1.775
'23:13.083',-0.165,1.790
'23:13.086',-0.145,1.815
'23:13.089',-0.145,1.845
'23:13.092',-0.155,1.835
'23:13.094',-0.145,1.840
'23:13.097',-0.135,1.840
'23:13.100',-0.125,1.825
'23:13.103',-0.100,1.825
'23:13.106',-0.090,1.815
'23:13.108',-0.070,1.795
'23:13.111',-0.085,1.745
'23:13.114',-0.085,1.690
'23:13.117',-0.085,1.650
'23:13.119',-0.040,1.610
'23:13.122',0.020,1.580
'23:13.125',0.045,1.505
'23:13.128',0.055,1.425
'23:13.131',0.050,1.345
'23:13.133',0.035,1.280
'23:13.136',0.055,1.210
'23:13.139',0.065,1.150
'23:13.142',0.075,1.080
'23:13.144',0.065,1.005
'23:13.147',0.040,0.915
'23:13.150',0.015,0.855
'23:13.153',0.030,0.805
'23:13.156',0.040,0.765
'23:13.158',0.045,0.705
